1642471872.00
64.000000
-0.00
-0.00
-0.00
-0.00
-0.00
-0.00
-0.00
-0.00
-0.00
-0.00
0.00
0.01
0.01
-0.00
-0.03
-0.05
-0.05
0.00
0.13
0.36
0.66
1.01
1.37
1.72
2.06
2.40
2.79
3.24
3.80
4.42
5.06
5.66
6.20
6.68
7.15
7.68
8.31
9.14
10.09
11.04
11.88
12.56
13.14
13.76
14.65
15.96
17.91
20.32
22.90
25.38
27.58
29.57
31.68
34.32
37.81
42.54
48.15
54.10
59.83
64.97
69.58
74.14
79.34
85.71
93.76
103.00
112.62
121.73
129.77
136.75
143.30
150.75
157.77
166.64
177.95
191.79
206.97
220.57
228.25
225.36
208.53
176.87
132.76
80.05
23.07
-34.94
-92.44
-149.16
-205.23
-260.37
-313.74
-363.87
-409.83
-450.91
-486.50
-515.74
-537.23
-549.22
-549.96
-538.37
-514.21
-478.67
-433.88
-382.45
-327.02
-269.84
-212.63
-156.66
-102.95
-52.37
-5.90
35.58
71.43
101.35
125.50
144.38
158.69
169.15
176.37
180.75
182.57
182.07
179.51
175.23
169.65
163.18
156.15
148.81
141.30
133.69
126.02
118.33
110.69
103.16
95.80
88.68
81.83
75.25
68.95
62.95
57.25
51.86
46.78
42.03
37.59
33.45
29.61
26.07
22.81
19.83
17.11
14.67
12.48
10.54
8.83
7.35
6.07
4.97
4.05
3.27
2.62
2.09
1.65
1.30
1.01
0.79
0.61
0.48
0.37
0.30
0.24
0.21
0.19
0.18
0.19
0.21
0.23
0.26
0.29
0.33
0.37
0.42
0.46
0.51
0.56
0.61
0.66
0.72
0.78
0.85
0.92
1.00
1.08
1.18
1.29
1.41
1.55
1.70
1.87
2.06
2.27
2.51
2.77
3.05
3.37
3.71
4.09
4.51
4.96
5.44
5.97
6.53
7.13
7.78
8.47
9.21
9.99
10.82
11.70
12.61
13.59
14.61
15.70
16.86
18.07
19.34
20.65
21.93
23.14
24.18
24.93
25.28
25.09
24.26
22.71
20.43
17.42
13.76
9.59
5.09
0.48
-4.02
-8.20
-11.85
-14.85
-17.11
-18.58
-19.29
-19.33
-18.79
-17.81
-16.49
-14.94
-13.23
-11.42
-9.54
-7.58
-5.63
-3.71
-1.84
-0.03
1.75
3.56
5.44
7.44
9.64
11.92
14.22
16.55
18.89
21.31
23.88
26.69
29.81
33.36
37.05
40.73
44.29
47.72
51.10
54.55
58.23
62.31
66.91
71.59
76.05
80.15
83.86
87.38
90.99
94.96
99.48
104.57
109.40
113.22
115.49
115.86
114.21
110.37
103.83
93.16
80.89
67.14
51.65
34.19
14.94
-5.57
-26.57
-47.28
-67.17
-86.00
-104.54
-123.56
-143.92
-166.47
-191.80
-219.70
-248.56
-275.24
-295.54
-305.97
-304.38
-290.92
-267.90
-238.88
-207.33
-175.80
-145.59
-117.25
-91.44
-68.83
-50.02
-35.17
-23.85
-15.06
-7.68
-0.85
5.79
11.97
17.17
20.88
22.97
23.75
23.90
24.24
25.38
27.44
29.95
32.14
33.27
33.03
31.61
29.54
27.40
25.49
23.72
21.74
19.24
16.08
12.40
8.49
4.63
1.02
-2.23
-4.96
-6.84
-7.39
-6.11
-2.70
2.78
9.85
17.66
25.28
31.88
36.94
40.29
41.99
42.24
41.29
39.35
36.67
33.53
30.19
26.90
23.79
20.91
18.28
15.91
13.85
12.14
10.79
9.70
8.67
7.46
5.86
3.73
1.07
-2.00
-5.28
-8.59
-11.78
-14.76
-17.52
-20.09
-22.54
-24.91
-27.14
-28.97
-29.90
-29.31
-26.59
-21.44
-14.01
-4.92
4.86
14.28
22.44
28.79
33.10
35.44
36.11
35.45
33.89
31.77
29.37
26.84
24.26
21.66
19.13
16.77
14.68
12.94
11.52
10.37
9.38
8.43
7.35
5.99
4.17
1.80
-1.08
-4.26
-7.47
-10.52
-13.35
-16.15
-19.23
-22.82
-26.88
-31.04
-34.62
-36.82
-36.88
-34.30
-28.94
-21.15
-11.67
-1.54
8.17
16.55
23.09
27.68
30.48
31.77
31.86
31.01
29.47
27.49
25.29
23.01
20.66
18.18
15.53
12.80
10.18
7.91
6.14
4.86
3.85
2.82
1.49
-0.25
-2.34
-4.61
-6.87
-8.98
-10.95
-12.89
-15.00
-17.51
-20.58
-24.25
-28.27
-32.09
-34.85
-35.62
-33.65
-28.68
-21.00
-11.43
-1.11
8.88
17.66
24.70
29.78
32.91
34.27
34.19
33.08
31.36
29.39
27.39
25.37
23.24
20.90
18.30
15.56
12.91
10.60
8.83
7.62
6.75
5.91
4.73
2.98
0.59
-2.30
-5.45
-8.57
-11.45
-13.97
-16.17
-18.25
-20.52
-23.29
-26.75
-30.75
-34.71
-37.68
-38.58
-36.57
-31.36
-23.36
-13.53
-3.10
6.83
15.46
22.36
27.39
30.54
31.88
31.58
29.96
27.45
24.60
21.85
19.47
17.49
15.75
14.00
12.07
9.96
7.84
5.97
4.55
3.65
3.14
2.75
2.12
0.99
-0.80
-3.27
-6.26
-9.57
-12.99
-16.41
-19.83
-23.31
-26.85
-30.31
-33.26
-35.08
-35.04
-32.62
-27.63
-20.35
-11.44
-1.86
7.45
15.71
22.43
27.38
30.56
32.09
32.12
30.84
28.48
25.36
21.88
18.43
15.34
12.81
10.89
9.52
8.64
8.18
8.04
8.06
7.94
7.36
6.04
3.88
1.03
-2.18
-5.36
-8.23
-10.75
-13.09
-15.59
-18.61
-22.36
-26.80
-31.57
-36.00
-39.26
-40.44
-38.92
-34.41
-27.19
-17.94
-7.73
2.36
11.38
18.72
24.17
27.79
29.84
30.63
30.42
29.44
27.88
25.91
23.68
21.33
18.93
16.55
14.27
12.21
10.55
9.43
8.85
8.60
8.34
7.61
6.07
3.57
0.23
-3.64
-7.62
-11.33
-14.59
-17.42
-20.08
-23.00
-26.55
-30.89
-35.73
-40.27
-43.43
-44.12
-41.63
-35.88
-27.38
-17.11
-6.19
4.38
13.85
21.74
27.74
31.76
33.85
34.24
33.31
31.51
29.27
26.94
24.77
22.82
21.10
19.53
18.01
16.50
15.03
13.72
12.68
11.95
11.38
10.69
9.46
7.39
4.36
0.52
-3.78
-8.12
-12.16
-15.74
-18.85
-21.66
-24.39
-27.29
-30.54
-34.10
-37.62
-40.41
-41.58
-40.19
-35.69
-28.09
-18.05
-6.75
4.42
14.28
22.10
27.64
31.10
32.89
33.44
33.06
31.94
30.19
27.95
25.44
22.93
20.67
18.82
17.39
16.26
15.26
14.21
13.08
11.91
10.78
9.75
8.69
7.36
5.45
2.75
-0.70
-4.62
-8.58
-12.16
-15.13
-17.55
-19.73
-22.02
-24.73
-28.08
-32.04
-36.39
-40.60
-43.83
-45.12
-43.58
-38.78
-30.92
-20.84
-9.73
1.15
10.91
19.03
25.31
29.71
32.27
33.09
32.40
30.59
28.13
25.48
22.93
20.60
18.50
16.59
14.85
13.31
11.96
10.83
9.88
9.08
8.34
7.46
6.20
4.28
1.55
-1.95
-5.93
-10.03
-13.85
-17.17
-19.93
-22.28
-24.55
-27.08
-30.14
-33.72
-37.48
-40.61
-42.11
-41.00
-36.73
-29.41
-19.76
-8.96
1.78
11.46
19.49
25.63
29.89
32.37
33.19
32.53
30.64
27.96
24.97
22.11
19.58
17.38
15.33
13.27
11.22
9.37
8.00
7.25
7.02
6.94
6.52
5.38
3.36
0.56
-2.73
-6.17
-9.49
-12.53
-15.28
-17.82
-20.35
-23.09
-26.25
-29.91
-33.89
-37.71
-40.58
-41.61
-39.96
-35.22
-27.54
-17.61
-6.63
4.17
13.68
21.25
26.63
29.97
31.60
31.89
31.13
29.56
27.40
24.84
22.13
19.45
16.96
14.76
12.88
11.31
10.04
9.04
8.26
7.64
7.03
6.27
5.14
3.46
1.11
-1.94
-5.50
-9.31
-13.03
-16.40
-19.37
-22.10
-24.96
-28.29
-32.26
-36.69
-41.02
-44.34
-45.63
-44.06
-39.27
-31.52
-21.59
-10.66
0.12
9.79
17.82
23.96
28.25
30.80
31.73
31.25
29.66
27.32
24.66
22.05
19.74
17.78
16.13
14.65
13.23
11.91
10.80
10.02
9.62
9.47
9.30
8.79
7.62
5.60
2.65
-1.11
-5.41
-9.84
-13.96
-17.44
-20.21
-22.48
-24.67
-27.26
-30.53
-34.44
-38.52
-41.99
-43.88
-43.29
-39.64
-32.87
-23.52
-12.68
-1.64
8.44
16.83
23.31
28.05
31.35
33.38
34.19
33.76
32.19
29.80
27.09
24.52
22.44
20.87
19.64
18.48
17.22
15.84
14.47
13.28
12.37
11.64
10.85
9.71
7.98
5.54
2.48
-1.00
-4.68
-8.34
-11.86
-15.21
-18.42
-21.59
-24.90
-28.49
-32.45
-36.70
-40.84
-44.20
-45.83
-44.86
-40.71
-33.44
-23.70
-12.66
-1.60
8.43
16.80
23.33
28.13
31.36
33.19
33.70
32.98
31.22
28.74
25.90
23.15
20.81
19.08
17.97
17.28
16.74
16.11
15.30
14.37
13.42
12.51
11.53
10.28
8.52
6.16
3.23
-0.07
-3.55
-7.08
-10.62
-14.20
-17.82
-21.40
-24.86
-28.16
-31.37
-34.62
-38.03
-41.47
-44.45
-46.18
-45.72
-42.31
-35.70
-26.30
-15.08
-3.37
7.53
16.69
23.61
28.28
30.92
31.86
31.41
29.84
27.44
24.59
21.69
19.07
16.93
15.26
13.92
12.72
11.60
10.58
9.80
9.42
9.48
9.86
10.27
10.32
9.60
7.88
5.18
1.79
-1.87
-5.38
-8.48
-11.20
-13.76
-16.48
-19.65
-23.46
-27.89
-32.76
-37.57
-41.58
-43.82
-43.37
-39.62
-32.61
-23.04
-12.10
-1.11
8.83
17.04
23.24
27.45
29.77
30.38
29.54
27.60
25.03
22.28
19.72
17.50
15.59
13.86
12.19
10.58
9.11
7.95
7.24
6.96
6.91
6.77
6.15
4.73
2.44
-0.60
-4.07
-7.58
-10.79
-13.55
-15.91
-18.09
-20.48
-23.41
-27.04
-31.21
-35.37
-38.61
-39.94
-38.51
-33.94
-26.44
-16.75
-5.95
4.77
14.44
22.35
28.19
31.90
33.68
33.78
32.60
30.54
28.00
25.36
22.92
20.79
18.92
17.18
15.36
13.37
11.26
9.24
7.56
6.36
5.56
4.91
4.03
2.60
0.43
-2.42
-5.71
-9.12
-12.38
-15.33
-18.01
-20.58
-23.26
-26.29
-29.77
-33.66
-37.65
-41.13
-43.24
-43.03
-39.83
-33.45
-24.37
-13.64
-2.56
7.72
16.42
23.26
28.26
31.58
33.37
33.72
32.80
30.89
28.43
25.95
23.87
22.36
21.37
20.60
19.71
18.53
17.11
15.74
14.71
14.16
13.92
13.54
12.52
10.46
7.32
3.31
-1.12
-5.60
-9.81
-13.67
-17.19
-20.47
-23.65
-26.91
-30.42
-34.24
-38.18
-41.69
-43.95
-43.99
-41.09
-34.99
-26.10
-15.41
-4.17
6.42
15.51
22.67
27.87
31.26
33.05
33.46
32.67
30.94
28.63
26.16
23.95
22.29
21.20
20.47
19.77
18.80
17.47
15.91
14.35
13.04
12.01
11.16
10.23
8.99
7.29
5.12
2.54
-0.30
-3.27
-6.26
-9.19
-12.09
-15.01
-18.07
-21.35
-24.86
-28.58
-32.39
-36.13
-39.47
-41.89
-42.68
-41.07
-36.54
-29.02
-19.12
-7.91
3.29
13.34
21.49
27.50
31.46
33.64
34.31
33.71
32.08
29.68
26.87
24.01
21.44
19.36
17.78
16.59
15.58
14.59
13.49
12.30
11.10
10.02
9.12
8.36
7.59
6.56
5.10
3.07
0.47
-2.59
-6.01
-9.65
-13.45
-17.27
-21.07
-24.81
-28.54
-32.33
-36.20
-39.92
-42.96
-44.51
-43.68
-39.88
-33.05
-23.77
-13.06
-2.15
7.94
16.53
23.34
28.30
31.45
32.84
32.59
30.94
28.27
25.06
21.78
18.75
16.13
13.92
12.05
10.47
9.13
8.10
7.37
6.92
6.62
6.23
5.49
4.19
2.23
-0.32
-3.24
-6.24
-9.10
-11.73
-14.22
-16.78
-19.69
-23.16
-27.29
-31.93
-36.66
-40.77
-43.37
-43.57
-40.73
-34.69
-25.92
-15.37
-4.28
6.20
15.23
22.42
27.71
31.25
33.22
33.77
33.07
31.35
28.94
26.18
23.39
20.76
18.39
16.28
14.38
12.67
11.12
9.73
8.47
7.33
6.22
5.06
3.73
2.07
-0.05
-2.73
-5.94
-9.51
-13.19
-16.68
-19.85
-22.70
-25.47
-28.50
-32.05
-36.10
-40.20
-43.49
-44.91
-43.55
-38.95
-31.31
-21.43
-10.53
0.17
9.74
17.63
23.76
28.22
31.15
32.65
32.83
31.78
29.77
27.14
24.31
21.59
19.20
17.21
15.57
14.27
13.24
12.45
11.82
11.26
10.68
9.99
9.11
7.96
6.45
4.49
2.05
-0.79
-3.90
-7.09
-10.22
-13.31
-16.51
-20.04
-24.11
-28.74
-33.78
-38.80
-43.18
-46.11
-46.79
-44.56
-39.14
-30.80
-20.34
-8.91
2.26
12.18
20.26
26.28
30.31
32.53
33.16
32.48
30.80
28.56
26.19
24.06
22.35
21.06
20.05
19.13
18.17
17.11
15.99
14.86
13.77
12.68
11.50
10.09
8.30
6.06
3.40
0.41
-2.73
-5.90
-8.99
-11.94
-14.77
-17.50
-20.17
-22.89
-25.83
-29.16
-32.96
-37.00
-40.71
-43.20
-43.47
-40.77
-34.86
-26.13
-15.56
-4.35
6.33
15.65
23.16
28.75
32.46
34.35
34.57
33.31
30.96
28.04
25.09
22.50
20.43
18.74
17.19
15.61
13.93
12.21
10.56
9.08
7.76
6.58
5.45
4.34
3.16
1.79
0.09
-2.07
-4.74
-7.86
-11.21
-14.56
-17.67
-20.48
-23.08
-25.67
-28.56
-31.95
-35.81
-39.74
-42.98
-44.55
-43.51
-39.27
-31.86
-21.90
-10.52
0.94
11.30
19.71
25.77
29.55
31.34
31.54
30.57
28.74
26.36
23.69
21.00
18.52
16.37
14.55
12.94
11.35
9.72
8.11
6.68
5.62
4.95
4.48
3.89
2.83
1.12
-1.24
-4.05
-7.06
-10.06
-12.98
-15.86
-18.79
-21.94
-25.44
-29.34
-33.53
-37.61
-40.90
-42.54
-41.73
-38.05
-31.54
-22.74
-12.52
-1.82
8.43
17.47
24.73
29.82
32.63
33.33
32.32
30.17
27.44
24.57
21.85
19.47
17.48
15.85
14.49
13.31
12.17
11.09
10.11
9.32
8.71
8.11
7.18
5.54
2.99
-0.41
-4.32
-8.25
-11.83
-14.89
-17.60
-20.32
-23.40
-27.06
-31.32
-35.92
-40.37
-43.95
-45.80
-45.11
-41.31
-34.34
-24.72
-13.46
-1.81
9.09
18.37
25.61
30.71
33.80
35.13
34.98
33.66
31.47
28.73
25.76
22.89
20.37
18.32
16.67
15.26
13.95
12.70
11.62
10.87
10.50
10.31
9.89
8.79
6.68
3.55
-0.35
-4.58
-8.74
-12.51
-15.78
-18.61
-21.26
-24.10
-27.51
-31.69
-36.46
-41.20
-44.86
-46.28
-44.53
-39.20
-30.59
-19.59
-7.49
4.35
14.80
23.13
29.07
32.69
34.32
34.31
33.08
31.03
28.55
26.07
23.91
22.27
21.07
20.08
18.98
17.58
15.92
14.24
12.81
11.77
11.03
10.26
9.09
7.22
4.57
1.31
-2.25
-5.78
-9.06
-11.96
-14.59
-17.13
-19.88
-23.14
-27.09
-31.74
-36.74
-41.43
-44.87
-46.07
-44.21
-38.98
-30.63
-19.97
-8.20
3.46
13.91
22.49
28.86
33.08
35.36
36.05
35.51
34.06
32.06
29.79
27.50
25.36
23.46
21.80
20.30
18.91
17.57
16.29
15.11
14.10
13.25
12.46
11.53
10.16
8.09
5.20
1.57
-2.52
-6.67
-10.53
-13.87
-16.68
-19.16
-21.62
-24.35
-27.59
-31.41
-35.68
-40.07
-43.99
-46.61
-47.10
-44.73
-39.15
-30.60
-19.81
-7.92
3.84
14.40
23.03
29.36
33.40
35.36
35.61
34.54
32.58
30.10
27.37
24.63
22.06
19.80
17.98
16.65
15.70
14.93
14.14
13.20
12.12
10.97
9.83
8.60
7.13
5.21
2.76
-0.12
-3.21
-6.28
-9.19
-11.96
-14.70
-17.53
-20.52
-23.69
-27.08
-30.73
-34.55
-38.28
-41.29
-42.75
-41.82
-37.93
-31.05
-21.76
-11.09
-0.22
9.77
18.15
24.56
28.93
31.40
32.15
31.48
29.72
27.28
24.55
21.92
19.63
17.79
16.38
15.25
14.24
13.20
12.07
10.86
9.67
8.64
7.82
7.07
6.13
4.62
2.30
-0.83
-4.54
-8.40
-12.01
-15.15
-17.91
-20.54
-23.41
-26.78
-30.71
-34.93
-38.87
-41.72
-42.60
-40.76
-35.86
-28.11
-18.25
-7.40
3.27
12.81
20.68
26.67
30.81
33.17
33.85
32.97
30.80
27.77
24.44
21.32
18.76
16.87
15.53
14.55
13.69
12.87
12.07
11.31
10.63
10.00
9.26
8.21
6.63
4.36
1.41
-2.10
-5.88
-9.64
-13.15
-16.37
-19.40
-22.50
-25.96
-29.97
-34.58
-39.52
-44.24
-47.87
-49.40
-47.92
-42.92
-34.52
-23.53
-11.29
0.73
11.27
19.64
25.66
29.59
31.85
32.78
32.59
31.45
29.55
27.18
24.68
22.36
20.44
18.95
17.83
16.91
15.99
14.96
13.74
12.38
10.98
9.60
8.22
6.62
4.52
1.72
-1.82
-5.88
-10.08
-14.06
-17.64
-20.84
-23.83
-26.81
-29.91
-33.19
-36.71
-40.41
-44.02
-46.90
-47.96
-45.90
-39.53
-28.26
-12.43
6.65
27.07
46.86
64.58
79.61
92.13
102.76
112.10
120.44
127.71
133.56
137.56
139.27
138.37
134.75
128.66
120.82
112.42
104.84
99.19
95.97
94.81
94.67
94.19
92.17
87.94
81.41
73.08
63.63
53.74
43.69
33.43
22.63
11.07
-1.21
-13.78
-26.07
-37.69
-48.56
-58.86
-68.58
-77.25
-83.96
-87.75
-88.31
-86.26
-83.07
-80.33
-79.05
-79.14
-79.61
-79.16
-76.96
-73.08
-68.36
-63.97
-60.75
-58.96
-58.34
-58.35
-58.54
-58.65
-58.60
-58.31
-57.62
-56.28
-54.09
-50.86
-46.56
-41.31
-35.38
-29.21
-23.34
-18.37
-14.81
-12.96
-12.84
-14.16
-16.44
-19.15
-21.88
-24.36
-26.52
-28.52
-30.65
-33.24
-36.49
-40.36
-44.34
-47.67
-49.40
-48.80
-45.62
-40.25
-33.59
-26.78
-20.77
-16.10
-12.83
-10.67
-9.22
-8.16
-7.28
-6.51
-5.80
-5.11
-4.42
-3.75
-3.18
-2.78
-2.62
-2.70
-2.99
-3.42
-3.93
-4.47
-5.00
-5.58
-6.30
-7.31
-8.81
-10.93
-13.65
-16.78
-20.00
-22.97
-25.54
-27.82
-30.26
-33.40
-37.63
-42.92
-48.64
-53.75
-57.02
-57.50
-54.76
-49.00
-40.89
-31.31
-21.18
-11.23
-2.00
6.17
13.09
18.70
23.01
26.11
28.14
29.22
29.51
29.10
28.10
26.63
24.81
22.82
20.81
18.94
17.30
15.90
14.63
13.31
11.68
9.47
6.48
2.67
-1.80
-6.64
-11.43
-15.87
-19.87
-23.62
-27.53
-32.09
-37.65
-44.19
-51.17
-57.58
-62.17
-63.78
-61.69
-55.85
-46.84
-35.64
-23.32
-10.84
1.07
11.82
20.93
28.02
32.90
35.64
36.58
36.25
35.19
33.80
32.30
30.73
29.06
27.31
25.65
24.33
23.62
23.62
24.15
24.79
24.95
24.13
22.07
18.85
14.79
10.33
5.81
1.37
-3.02
-7.56
-12.48
-18.08
-24.58
-32.10
-40.46
-48.98
-56.54
-61.77
-63.47
-61.03
-54.63
-45.11
-33.63
-21.25
-8.72
3.47
14.86
24.91
32.98
38.53
41.37
41.80
40.46
38.14
35.49
32.86
30.31
27.79
25.19
22.59
20.15
18.05
16.31
14.72
12.92
10.44
7.00
2.48
-2.97
-9.05
-15.46
-21.98
-28.53
-35.23
-42.41
-50.57
-60.24
-71.70
-84.73
-98.44
-111.29
-121.53
-127.61
-128.76
-125.14
-117.78
-108.22
-98.01
-88.38
-80.08
-73.46
-68.53
-65.10
-62.86
-61.36
-60.17
-58.92
-57.47
-55.91
-54.53
-53.65
-53.54
-54.31
-55.99
-58.54
-61.86
-65.64
-69.28
-71.79
-71.94
-68.47
-60.39
-47.26
-29.27
-7.12
18.14
45.41
73.61
101.77
128.91
154.15
176.82
196.80
214.54
230.94
246.83
262.48
277.33
290.12
299.40
304.04
303.62
298.40
289.10
276.67
262.07
246.23
230.02
214.09
198.76
183.88
169.07
153.91
138.31
122.67
107.72
94.29
82.95
73.82
66.50
60.18
53.87
46.68
37.97
27.62
15.89
3.44
-8.96
-20.58
-30.99
-40.03
-47.74
-54.28
-59.77
-64.37
-68.32
-72.00
-75.83
-80.09
-84.60
-88.60
-90.92
-90.26
-85.79
-77.40
-65.87
-52.55
-38.94
-26.27
-15.30
-6.36
0.45
5.12
7.67
8.15
6.79
4.04
0.51
-3.08
-6.13
-8.22
-9.20
-9.19
-8.51
-7.59
-6.92
-6.85
-7.57
-9.00
-10.91
-13.01
-15.08
-17.09
-19.19
-21.57
-24.39
-27.61
-30.96
-34.10
-36.65
-38.45
-39.54
-40.22
-40.91
-42.02
-43.79
-46.23
-48.92
-51.13
-51.90
-50.30
-45.75
-38.20
-28.22
-16.86
-5.39
5.06
13.70
20.24
24.74
27.51
28.90
29.18
28.56
27.16
25.17
22.78
20.23
17.71
15.33
13.15
11.17
9.48
8.21
7.57
7.68
8.53
9.89
11.38
12.55
13.01
12.57
11.21
9.06
6.39
3.45
0.46
-2.43
-5.20
-8.00
-11.02
-14.52
-18.68
-23.54
-28.97
-34.65
-40.00
-44.28
-46.63
-46.28
-42.82
-36.35
-27.56
-17.61
-7.81
0.67
7.08
11.20
13.21
13.61
12.98
11.90
10.78
9.90
9.38
9.21
9.26
9.37
9.37
9.24
9.09
9.17
9.66
10.60
11.78
12.80
13.24
12.82
11.53
9.61
7.39
5.12
2.92
0.69
-1.78
-4.70
-8.20
-12.26
-16.67
-21.10
-25.22
-28.78
-31.73
-34.16
-36.33
-38.46
-40.64
-42.72
-44.22
-44.46
-42.74
-38.57
-31.97
-23.44
-13.91
-4.42
4.15
11.29
16.82
20.78
23.26
24.35
24.19
23.03
21.24
19.24
17.28
15.46
13.65
11.72
9.65
7.59
5.83
4.65
4.17
4.32
4.82
5.35
5.61
5.39
4.58
3.21
1.40
-0.68
-2.79
-4.75
-6.46
-7.93
-9.25
-10.58
-12.03
-13.65
-15.34
-16.95
-18.31
-19.32
-20.04
-20.74
-21.75
-23.39
-25.72
-28.45
-30.93
-32.31
-31.79
-28.84
-23.48
-16.10
-7.52
1.39
9.81
17.17
23.09
27.40
30.08
31.21
31.02
29.84
28.03
25.90
23.66
21.38
19.08
16.75
14.46
12.32
10.40
8.77
7.41
6.25
5.23
4.24
3.20
2.01
0.61
-1.07
-2.98
-5.03
-7.14
-9.25
-11.44
-13.82
-16.50
-19.48
-22.57
-25.49
-27.94
-29.74
-30.94
-31.81
-32.71
-34.02
-35.87
-38.17
-40.47
-42.08
-42.23
-40.24
-35.68
-28.57
-19.39
-8.98
1.65
11.51
19.82
26.14
30.34
32.55
33.08
32.35
30.79
28.84
26.85
25.04
23.46
22.04
20.62
19.05
17.30
15.46
13.73
12.33
11.38
10.81
10.41
9.88
9.01
7.69
5.95
3.92
1.70
-0.67
-3.22
-6.01
-9.08
-12.34
-15.64
-18.79
-21.66
-24.27
-26.71
-29.22
-32.01
-35.16
-38.49
-41.52
-43.51
-43.65
-41.35
-36.40
-29.14
-20.27
-10.74
-1.45
6.90
13.84
19.16
22.80
24.82
25.37
24.65
22.97
20.69
18.22
15.88
13.99
12.64
11.78
11.23
10.86
10.61
10.56
10.83
11.44
12.24
12.93
13.14
12.64
11.40
9.54
7.25
4.67
1.83
-1.27
-4.67
-8.28
-11.94
-15.46
-18.62
-21.29
-23.44
-25.15
-26.58
-27.96
-29.48
-31.23
-33.09
-34.63
-35.21
-34.05
-30.62
-24.75
-16.78
-7.48
2.15
11.17
18.89
24.89
29.03
31.36
32.09
31.52
30.09
28.26
26.43
24.85
23.55
22.36
20.97
19.08
16.52
13.33
9.72
6.10
2.86
0.24
-1.68
-3.11
-4.30
-5.49
-6.76
-8.09
-9.42
-10.74
-12.13
-13.69
-15.47
-17.43
-19.48
-21.52
-23.49
-25.42
-27.33
-29.31
-31.44
-33.86
-36.65
-39.62
-42.27
-43.69
-42.86
-38.97
-31.82
-21.92
-10.37
1.50
12.51
21.86
29.18
34.38
37.57
38.94
38.73
37.20
34.65
31.36
27.59
23.62
19.69
15.97
12.59
9.56
6.82
4.35
2.13
0.18
-1.42
-2.74
-3.88
-5.03
-6.42
-8.16
-10.28
-12.67
-15.10
-17.36
-19.31
-20.89
-22.18
-23.34
-24.60
-26.17
-28.21
-30.70
-33.51
-36.34
-38.87
-40.81
-41.93
-42.05
-40.99
-38.52
-34.42
-28.49
-20.81
-11.68
-1.63
8.72
18.85
28.41
37.18
44.95
51.41
56.07
58.33
57.68
53.94
47.50
39.34
30.88
23.60
18.56
16.09
15.62
15.95
15.70
13.79
9.88
4.46
-1.36
-6.29
-9.31
-10.04
-8.78
-6.47
-4.41
-4.02
-6.61
-13.00
-23.31
-36.66
-51.43
-65.73
-78.19
-88.35
-96.57
-103.28
-108.18
-109.91
-106.47
-96.26
-79.25
-57.36
-34.06
-13.12
2.70
12.42
16.83
17.91
17.84
18.33
20.26
23.82
28.85
35.20
42.76
51.32
60.32
68.70
75.26
79.30
81.09
82.03
84.08
88.83
96.61
106.19
115.13
120.75
121.09
115.60
105.24
92.01
78.24
65.95
56.36
49.78
45.73
43.22
41.01
38.00
33.56
27.75
21.48
16.33
14.14
16.45
23.97
36.20
51.47
67.34
81.10
90.65
95.00
94.60
90.98
86.11
81.54
77.84
74.75
71.79
69.01
67.19
67.45
70.24
74.57
77.99
77.48
70.82
57.63
39.62
19.76
1.05
-14.44
-25.96
-33.70
-38.15
-39.64
-38.34
-34.56
-29.18
-23.61
-19.40
-17.69
-18.70
-21.74
-25.61
-29.24
-32.23
-35.05
-38.73
-44.40
-52.63
-63.00
-74.24
-84.51
-92.22
-96.52
-97.71
-96.96
-95.78
-95.34
-96.09
-97.71
-99.44
-100.52
-100.53
-99.40
-97.21
-93.97
-89.56
-83.77
-76.60
-68.40
-59.86
-51.79
-44.81
-39.10
-34.36
-29.95
-25.18
-19.63
-13.30
-6.58
-0.14
5.38
9.66
12.77
15.13
17.33
19.81
22.68
25.73
28.49
30.52
31.56
31.58
30.75
29.31
27.55
25.66
23.81
22.06
20.44
18.90
17.39
15.86
14.28
12.66
10.97
9.14
7.12
4.88
2.50
0.12
-2.04
-3.82
-5.19
-6.23
-7.15
-8.19
-9.48
-11.03
-12.71
-14.34
-15.75
-16.83
-17.57
-18.02
-18.27
-18.36
-18.26
-17.92
-17.28
-16.36
-15.25
-14.10
-13.05
-12.17
-11.48
-10.92
-10.47
-10.07
-9.73
-9.34
-8.82
-8.07
-7.03
-5.80
-4.49
-3.31
-2.36
-1.71
-1.32
-1.12
-1.01
-0.91
-0.79
-0.67
-0.62
-0.71
-1.02
-1.50
-2.06
-2.63
-3.17
-3.78
-4.52
-5.42
-6.36
-7.12
-7.51
-7.45
-7.03
-6.45
-5.90
-5.44
-5.06
-4.67
-4.27
-3.92
-3.71
-3.74
-3.99
-4.44
-5.00
-5.59
-6.15
-6.60
-6.90
-7.01
-7.01
-7.02
-7.24
-7.77
-8.56
-9.37
-9.86
-9.73
-8.88
-7.49
-5.91
-4.57
-3.76
-3.61
-4.08
-4.97
-6.04
-6.99
-7.51
-7.30
-6.22
-4.32
-1.95
0.40
2.31
3.56
4.34
5.10
6.40
8.58
11.64
15.13
18.39
20.81
22.04
22.15
21.51
20.58
19.64
18.67
17.40
15.53
12.87
9.47
5.55
1.32
-3.13
-7.89
-13.10
-18.86
-25.02
-31.29
-37.26
-42.59
-47.25
-51.51
-55.93
-61.17
-67.69
-75.54
-84.31
-93.21
-101.39
-108.23
-113.60
-117.88
-121.68
-125.66
-130.23
-135.46
-141.07
-146.54
-151.17
-154.23
-155.04
-153.18
-148.55
-141.41
-132.08
-120.66
-106.64
-88.96
-66.43
-38.54
-6.17
28.30
61.41
89.73
110.92
124.34
131.07
133.20
133.06
132.40
132.04
131.78
130.69
127.62
121.77
113.07
102.29
90.56
78.89
67.59
56.27
44.38
31.85
19.54
9.03
1.86
-1.32
-1.24
0.32
1.27
0.05
-3.86
-10.07
-17.63
-25.50
-32.72
-38.39
-41.60
-41.42
-37.13
-28.63
-16.57
-2.35
12.23
25.55
36.58
45.07
51.38
56.17
59.95
62.89
64.78
65.25
64.03
61.16
57.00
52.10
47.00
42.05
37.41
33.11
29.19
25.80
23.11
21.30
20.36
20.06
19.98
19.64
18.58
16.38
12.67
7.12
-0.51
-10.24
-21.69
-34.11
-46.51
-57.95
-67.80
-75.90
-82.47
-87.76
-91.79
-94.21
-94.36
-91.64
-85.78
-77.04
-66.12
-53.89
-41.14
-28.39
-15.95
-4.03
7.12
17.12
25.58
32.17
36.79
39.61
41.04
41.60
41.84
42.18
42.84
43.84
45.06
46.31
47.49
48.55
49.54
50.43
51.14
51.47
51.25
50.37
48.80
46.61
43.83
40.45
36.39
31.63
26.20
20.31
14.24
8.33
2.87
-1.95
-6.05
-9.48
-12.38
-14.94
-17.26
-19.35
-21.02
-21.91
-21.65
-19.93
-16.69
-12.14
-6.70
-0.86
4.91
10.30
15.10
19.15
22.36
24.61
25.88
26.27
26.01
25.43
24.81
24.38
24.25
24.53
25.24
26.40
27.84
29.20
30.00
29.77
28.34
25.85
22.82
19.83
17.29
15.26
13.50
11.68
9.56
7.19
4.77
2.57
0.82
-0.43
-1.30
-2.04
-2.93
-4.21
-5.93
-7.95
-9.81
-10.76
-9.92
-6.68
-0.89
7.11
16.68
27.20
38.17
49.27
60.26
70.51
78.87
84.01
84.74
80.61
72.06
60.14
46.22
31.84
18.42
7.07
-1.24
-5.96
-7.20
-5.19
-1.33
1.62
1.22
-3.01
-9.44
-15.38
-18.99
-20.33
-21.29
-24.79
-33.15
-46.43
-62.18
-78.25
-91.31
-99.26
-101.68
-99.36
-93.47
-85.13
-75.07
-64.23
-54.32
-47.28
-44.77
-47.06
-52.85
-58.29
-60.75
-59.22
-55.05
-51.65
-52.96
-62.05
-79.57
-103.02
-127.04
-144.89
-149.99
-137.99
-108.30
-64.29
-12.58
39.04
83.86
117.81
139.71
150.71
152.89
148.10
137.60
122.25
103.05
81.49
59.19
37.16
15.31
-7.58
-33.14
-62.14
-93.33
-123.01
-145.61
-155.31
-148.06
-123.00
-83.04
-34.05
16.76
62.84
99.69
125.41
140.17
145.15
141.57
130.23
111.66
86.77
57.44
26.57
-2.35
-26.31
-43.62
-54.45
-60.55
-64.47
-68.42
-73.54
-79.84
-86.65
-93.47
-100.50
-108.70
-119.31
-133.11
-149.85
-168.10
-185.51
-199.38
-207.12
-206.63
-196.60
-176.59
-147.40
-111.21
-71.38
-31.97
3.34
32.08
53.59
68.76
79.33
87.04
93.03
97.77
101.29
103.67
105.11
105.95
106.45
106.74
106.96
107.47
108.84
111.67
116.18
121.98
128.06
133.21
136.41
137.21
135.86
133.08
129.74
126.53
123.78
121.46
119.26
116.80
113.77
110.00
105.49
100.34
94.71
88.67
82.28
75.49
68.23
60.47
52.26
43.72
35.03
26.40
18.08
10.31
3.38
-2.46
-6.98
-10.05
-11.62
-11.82
-10.94
-9.40
-7.70
-6.33
-5.72
-6.11
-7.61
-10.14
-13.55
-17.62
-22.10
-26.75
-31.38
-35.94
-40.43
-44.93
-49.41
-53.61
-57.01
-58.91
-58.55
-55.36
-49.03
-39.72
-27.94
-14.54
-0.53
13.15
25.74
36.77
45.96
53.20
58.35
61.31
62.00
60.48
56.90
51.53
44.58
36.26
26.79
16.49
5.86
-4.50
-13.97
-22.16
-28.84
-34.00
-37.80
-40.46
-42.36
-44.01
-45.95
-48.65
-52.31
-56.78
-61.64
-66.30
-70.31
-73.48
-75.96
-78.15
-80.48
-83.33
-86.72
-90.31
-93.34
-94.77
-93.52
-88.79
-80.23
-68.13
-53.34
-37.00
-20.42
-4.71
9.29
21.06
30.43
37.44
42.28
45.17
46.41
46.28
45.16
43.42
41.44
39.51
37.73
36.09
34.47
32.77
30.98
29.23
27.63
26.23
24.91
23.42
21.39
18.55
14.80
10.25
5.21
0.01
-5.00
-9.69
-14.12
-18.55
-23.34
-28.87
-35.30
-42.50
-49.91
-56.54
-61.18
-62.64
-60.08
-53.30
-42.77
-29.59
-15.18
-0.93
12.11
23.33
32.50
39.58
44.53
47.24
47.70
46.11
42.99
39.10
35.22
31.90
29.31
27.28
25.50
23.72
21.84
19.88
17.84
15.57
12.79
9.20
4.67
-0.64
-6.32
-11.79
-16.50
-20.12
-22.62
-24.24
-25.52
-27.11
-29.64
-33.50
-38.58
-44.18
-48.96
-51.27
-49.67
-43.37
-32.55
-18.23
-1.88
15.16
31.94
47.98
63.04
76.85
89.05
99.24
107.34
113.76
119.34
125.10
131.82
139.78
148.80
158.36
167.95
177.17
185.69
193.12
198.75
201.57
200.41
194.26
182.65
165.71
144.16
119.00
91.30
62.05
32.10
2.24
-26.76
-54.19
-79.50
-102.26
-122.20
-139.02
-152.32
-161.60
-166.31
-166.07
-160.92
-151.48
-138.88
-124.62
-110.24
-97.05
-86.04
-77.84
-72.80
-70.94
-72.06
-75.54
-80.45
-85.71
-90.36
-93.77
-95.67
-96.12
-95.16
-92.79
-88.92
-83.56
-77.01
-69.85
-62.87
-56.76
-52.00
-48.70
-46.68
-45.64
-45.27
-45.38
-45.85
-46.61
-47.61
-48.85
-50.47
-52.81
-56.38
-61.57
-68.41
-76.24
-83.64
-88.76
-89.79
-85.58
-75.96
-61.81
-44.72
-26.54
-8.85
7.25
21.19
32.80
42.12
49.25
54.31
57.48
59.07
59.48
59.14
58.38
57.28
55.72
53.54
50.74
47.62
44.68
42.36
40.74
39.47
37.81
35.04
30.75
25.01
18.32
11.26
4.32
-2.34
-8.84
-15.49
-22.66
-30.67
-39.69
-49.52
-59.55
-68.63
-75.24
-77.85
-75.34
-67.40
-54.65
-38.48
-20.62
-2.77
13.80
28.26
40.19
49.44
55.99
59.97
61.63
61.40
59.81
57.37
54.45
51.23
47.74
43.96
40.03
36.25
33.00
30.56
28.86
27.48
25.74
23.01
18.98
13.80
7.93
1.91
-3.92
-9.55
-15.23
-21.37
-28.33
-36.29
-45.13
-54.38
-63.15
-70.13
-73.89
-73.17
-67.35
-56.72
-42.47
-26.39
-10.35
4.12
16.22
25.76
33.04
38.50
42.52
45.32
47.03
47.76
47.63
46.84
45.54
43.91
42.09
40.23
38.59
37.41
36.93
37.26
38.34
39.94
41.68
43.14
43.95
43.83
42.69
40.65
37.88
34.63
30.98
26.81
21.74
15.29
7.17
-2.54
-13.07
-23.07
-30.82
-34.77
-33.95
-28.36
-18.86
-6.89
5.98
18.51
29.87
39.64
47.60
53.62
57.57
59.43
59.42
57.96
55.60
52.83
49.97
47.10
44.17
41.18
38.19
35.40
33.00
31.06
29.40
27.68
25.46
22.39
18.32
13.29
7.50
1.24
-5.13
-11.30
-17.01
-22.19
-27.07
-32.15
-38.07
-45.27
-53.62
-62.24
-69.56
-73.77
-73.40
-67.85
-57.59
-43.91
-28.52
-12.98
1.54
14.39
25.27
34.09
40.80
45.45
48.21
49.37
49.34
48.50
47.13
45.39
43.28
40.78
37.88
34.74
31.59
28.75
26.48
24.80
23.50
22.15
20.31
17.61
14.00
9.64
4.89
0.10
-4.56
-9.13
-13.94
-19.42
-25.99
-33.87
-43.03
-52.97
-62.79
-71.17
-76.63
-77.99
-74.64
-66.81
-55.50
-42.18
-28.32
-15.06
-3.04
7.46
16.33
23.50
28.91
32.69
35.17
36.97
38.74
40.93
43.64
46.58
49.24
51.12
51.94
51.69
50.58
48.80
46.46
43.55
39.93
35.53
30.31
24.35
17.85
11.05
4.25
-2.32
-8.51
-14.38
-20.21
-26.47
-33.62
-41.89
-50.96
-59.91
-67.36
-71.79
-72.09
-67.88
-59.60
-48.40
-35.69
-22.78
-10.59
0.35
9.78
17.58
23.68
28.03
30.70
31.84
31.78
30.89
29.50
27.85
26.06
24.14
22.05
19.79
17.49
15.36
13.71
12.69
12.23
11.95
11.23
9.50
6.43
2.07
-3.14
-8.60
-13.81
-18.52
-22.90
-27.32
-32.30
-38.20
-45.14
-52.86
-60.67
-67.54
-72.24
-73.64
-71.00
-64.22
-53.87
-41.07
-27.12
-13.25
-0.39
10.92
20.43
28.07
33.83
37.78
40.07
40.96
40.82
40.06
38.97
37.68
36.14
34.28
32.06
29.61
27.18
25.06
23.42
22.24
21.28
20.15
18.42
15.74
11.97
7.24
1.85
-3.74
-9.14
-14.12
-18.71
-23.15
-27.79
-33.02
-39.12
-46.07
-53.50
-60.60
-66.21
-69.09
-68.27
-63.38
-54.79
-43.47
-30.74
-17.88
-5.87
4.68
13.50
20.53
25.86
29.64
32.08
33.44
33.93
33.72
32.94
31.66
30.00
28.12
26.25
24.56
23.19
22.11
21.21
20.31
19.24
17.87
16.09
13.81
10.91
7.37
3.25
-1.26
-5.89
-10.39
-14.65
-18.73
-22.80
-27.19
-32.18
-37.97
-44.47
-51.21
-57.34
-61.68
-63.07
-60.69
-54.40
-44.72
-32.75
-19.75
-6.88
5.01
15.41
24.06
30.80
35.59
38.51
39.78
39.75
38.80
37.28
35.45
33.45
31.34
29.11
26.81
24.50
22.30
20.34
18.70
17.36
16.20
14.94
13.26
10.91
7.77
3.92
-0.42
-4.94
-9.40
-13.71
-17.91
-22.24
-26.96
-32.37
-38.59
-45.51
-52.71
-59.36
-64.42
-66.84
-65.86
-61.27
-53.47
-43.28
-31.79
-19.96
-8.57
1.80
10.73
17.89
23.03
26.12
27.33
27.06
25.79
23.94
21.81
19.55
17.18
14.78
12.46
10.39
8.78
7.74
7.31
7.30
7.33
6.95
5.71
3.31
-0.33
-5.04
-10.55
-16.60
-22.99
-29.70
-36.76
-44.28
-52.35
-61.01
-70.14
-79.36
-88.00
-95.10
-99.74
-101.18
-99.21
-94.14
-86.74
-77.96
-68.72
-59.70
-51.16
-43.08
-34.99
-26.37
-16.81
-6.11
5.73
18.67
32.73
48.25
65.47
84.61
105.31
126.56
146.90
164.95
179.60
190.36
197.66
202.11
204.96
207.25
209.63
212.22
214.67
215.97
214.82
210.38
201.71
188.88
172.45
153.39
132.90
112.14
91.61
70.91
49.16
20.67
-16.74
-60.94
-105.88
-144.23
-169.82
-179.35
-177.10
-165.57
-147.98
-127.69
-108.24
-92.69
-83.16
-77.91
-75.60
-74.41
-71.86
-66.73
-58.52
-47.96
-36.66
-26.51
-19.01
-15.23
-15.18
-17.58
-21.19
-24.70
-27.29
-28.83
-29.74
-30.74
-32.82
-36.59
-41.93
-48.68
-56.43
-64.79
-73.50
-82.39
-91.29
-100.09
-108.42
-115.52
-120.78
-123.64
-123.63
-120.34
-113.35
-102.44
-87.92
-70.73
-52.37
-34.54
-18.60
-5.14
5.95
15.11
22.54
27.97
30.89
31.02
28.79
25.37
22.29
20.82
21.46
23.83
26.88
29.43
30.66
30.44
29.39
28.55
28.99
31.25
35.23
40.16
45.01
48.88
51.19
51.71
50.39
47.32
42.75
37.24
31.76
27.41
25.09
25.05
26.73
28.95
30.34
29.85
26.99
21.80
14.65
6.05
-3.40
-13.14
-22.52
-31.00
-38.18
-43.86
-48.06
-50.90
-52.47
-52.85
-52.10
-50.34
-47.77
-44.64
-41.12
-37.30
-33.13
-28.57
-23.75
-18.99
-14.80
-11.66
-9.86
-9.37
-9.92
-11.23
-13.13
-15.73
-19.23
-23.76
-29.06
-34.50
-39.09
-41.80
-41.76
-38.54
-32.20
-23.28
-12.72
-1.68
8.68
17.39
23.82
27.74
29.23
28.61
26.26
22.55
17.84
12.60
7.38
2.84
-0.46
-2.21
-2.41
-1.34
0.52
2.64
4.56
5.82
6.06
5.00
2.44
-1.63
-7.04
-13.46
-20.43
-27.44
-34.04
-39.98
-45.29
-50.37
-55.81
-62.16
-69.62
-77.82
-85.85
-92.47
-96.57
-97.49
-95.28
-90.59
-84.50
-78.11
-72.23
-67.21
-62.98
-59.15
-55.27
-51.04
-46.41
-41.57
-36.86
-32.78
-29.75
-28.05
-27.71
-28.55
-30.18
-32.25
-34.47
-36.78
-39.30
-42.23
-45.76
-49.90
-54.46
-59.05
-63.22
-66.55
-68.76
-69.78
-69.65
-68.44
-66.14
-62.65
-57.76
-51.33
-43.35
-34.10
-24.06
-13.88
-4.26
4.21
11.23
16.86
21.54
25.98
30.91
36.86
43.95
51.85
59.90
67.34
73.58
78.47
82.34
85.96
90.20
95.77
102.90
111.22
119.93
128.06
134.79
139.74
143.04
145.28
147.23
149.62
152.90
157.12
161.82
166.18
169.15
169.77
167.44
162.12
154.42
145.36
136.07
127.45
119.95
113.60
108.20
103.55
99.57
96.27
93.57
91.31
89.25
87.28
85.60
84.73
85.33
87.79
92.02
97.33
102.68
106.95
109.18
108.74
105.28
98.70
89.21
77.33
63.82
49.62
35.60
22.42
10.42
-0.39
-10.15
-19.03
-27.10
-34.27
-40.40
-45.31
-49.03
-51.74
-53.85
-55.81
-57.97
-60.49
-63.23
-65.86
-67.97
-69.23
-69.49
-68.80
-67.45
-65.91
-64.73
-64.33
-64.90
-66.22
-67.60
-68.02
-66.45
-62.13
-54.96
-45.51
-34.90
-24.38
-14.91
-6.91
-0.16
5.89
11.78
17.75
23.56
28.73
32.73
35.32
36.51
36.60
35.86
34.41
32.20
29.09
25.06
20.29
15.16
10.09
5.42
1.24
-2.58
-6.31
-10.23
-14.43
-18.82
-23.12
-27.02
-30.31
-33.02
-35.42
-37.91
-40.84
-44.36
-48.37
-52.58
-56.54
-59.84
-62.06
-62.88
-62.05
-59.48
-55.29
-49.82
-43.60
-37.21
-31.16
-25.76
-21.07
-17.00
-13.40
-10.11
-7.07
-4.31
-1.87
0.18
1.87
3.24
4.34
5.14
5.64
5.80
5.68
5.43
5.21
5.15
5.20
5.17
4.73
3.60
1.62
-1.12
-4.36
-7.78
-11.05
-13.99
-16.54
-18.80
-20.91
-23.09
-25.54
-28.33
-31.41
-34.46
-36.95
-38.17
-37.45
-34.38
-28.98
-21.72
-13.42
-5.00
2.78
9.44
14.82
18.98
22.00
23.95
24.90
24.93
24.29
23.28
22.23
21.35
20.64
19.94
19.03
17.77
16.17
14.39
12.68
11.23
10.11
9.21
8.25
6.85
4.68
1.53
-2.52
-7.19
-12.06
-16.66
-20.67
-23.96
-26.60
-28.83
-30.95
-33.23
-35.77
-38.41
-40.69
-41.93
-41.42
-38.63
-33.46
-26.28
-17.84
-9.02
-0.61
6.82
12.98
17.73
21.04
22.95
23.60
23.24
22.19
20.76
19.21
17.65
16.13
14.63
13.12
11.60
10.01
8.30
6.39
4.26
1.95
-0.39
-2.64
-4.70
-6.63
-8.62
-10.84
-13.42
-16.32
-19.38
-22.41
-25.28
-28.05
-30.91
-34.10
-37.67
-41.33
-44.48
-46.26
-45.88
-42.90
-37.39
-29.89
-21.24
-12.33
-3.88
3.56
9.70
14.38
17.58
19.45
20.31
20.59
20.72
20.99
21.43
21.88
22.07
21.83
21.19
20.38
19.75
19.63
20.16
21.26
22.62
23.80
24.42
24.24
23.27
21.76
20.04
18.44
17.06
15.81
14.37
12.29
9.18
4.74
-1.07
-8.01
-15.48
-22.55
-28.10
-31.14
-31.07
-27.94
-22.44
-15.69
-8.84
-2.79
2.00
5.46
7.69
8.83
9.02
8.38
7.13
5.51
3.86
2.39
1.21
0.29
-0.49
-1.25
-2.02
-2.76
-3.36
-3.71
-3.83
-3.84
-3.99
-4.56
-5.77
-7.65
-10.09
-12.83
-15.59
-18.17
-20.51
-22.63
-24.68
-26.80
-29.10
-31.61
-34.22
-36.66
-38.51
-39.27
-38.49
-35.93
-31.62
-25.92
-19.38
-12.61
-6.16
-0.35
4.64
8.79
12.10
14.53
16.01
16.48
15.97
14.61
12.62
10.25
7.61
4.73
1.55
-1.95
-5.66
-9.38
-12.81
-15.72
-18.02
-19.76
-21.09
-22.18
-23.16
-24.11
-25.05
-25.95
-26.74
-27.29
-27.46
-27.08
-26.07
-24.45
-22.36
-20.03
-17.64
-15.22
-12.50
-8.98
-4.08
2.60
11.07
20.90
31.32
41.47
50.68
58.53
64.84
69.48
72.31
73.20
72.13
69.35
65.31
60.62
55.84
51.29
47.04
42.95
38.84
34.64
30.42
26.41
22.90
20.02
17.63
15.36
12.73
9.37
5.25
0.65
-3.93
-7.99
-11.29
-13.92
-16.21
-18.62
-21.47
-24.89
-28.74
-32.57
-35.73
-37.42
-36.93
-33.78
-28.01
-20.16
-11.17
-2.13
6.02
12.70
17.69
21.07
23.03
23.82
23.65
22.72
21.22
19.33
17.21
14.95
12.57
10.05
7.39
4.59
1.75
-0.98
-3.47
-5.63
-7.40
-8.87
-10.18
-11.55
-13.17
-15.15
-17.49
-20.03
-22.51
-24.70
-26.54
-28.15
-29.81
-31.82
-34.28
-36.99
-39.40
-40.81
-40.49
-38.00
-33.25
-26.59
-18.63
-10.17
-1.90
5.61
12.11
17.46
21.64
24.66
26.48
27.12
26.73
25.63
24.18
22.68
21.26
19.86
18.26
16.34
14.10
11.72
9.51
7.70
6.39
5.48
4.79
4.03
3.00
1.53
-0.40
-2.76
-5.37
-8.09
-10.74
-13.28
-15.76
-18.33
-21.17
-24.38
-27.94
-31.56
-34.74
-36.77
-36.91
-34.63
-29.83
-22.84
-14.42
-5.53
3.00
10.57
16.90
21.94
25.73
28.32
29.76
30.13
29.62
28.48
26.97
25.28
23.47
21.56
19.57
17.55
15.58
13.78
12.20
10.84
9.70
8.71
7.80
6.82
5.56
3.80
1.41
-1.55
-4.85
-8.17
-11.19
-13.78
-15.97
-17.96
-19.95
-22.10
-24.45
-26.95
-29.42
-31.52
-32.74
-32.48
-30.22
-25.73
-19.26
-11.44
-3.18
4.68
11.55
17.21
21.70
25.11
27.51
28.87
29.17
28.48
27.02
25.11
23.06
21.16
19.53
18.21
17.09
16.08
15.03
13.91
12.76
11.73
10.96
10.46
10.10
9.56
8.58
7.03
5.05
2.97
1.06
-0.58
-2.15
-3.98
-6.37
-9.49
-13.25
-17.44
-21.69
-25.55
-28.45
-29.71
-28.76
-25.32
-19.57
-12.22
-4.24
3.36
9.90
15.10
19.06
21.99
24.10
25.39
25.73
24.98
23.13
20.39
17.11
13.66
10.32
7.25
4.54
2.33
0.78
0.10
0.30
1.10
1.91
1.99
0.68
-2.35
-6.95
-12.55
-18.36
-23.67
-28.04
-31.46
-34.21
-36.72
-39.44
-42.71
-46.78
-51.71
-57.32
-63.00
-67.73
-70.25
-69.56
-65.19
-57.49
-47.45
-36.30
-25.07
-14.40
-4.55
4.31
11.92
17.87
21.82
23.64
23.61
22.30
20.41
18.49
16.81
15.35
13.90
12.31
10.56
8.80
7.24
5.99
4.98
3.87
2.23
-0.33
-3.99
-8.67
-14.01
-19.60
-25.00
-29.94
-34.33
-38.29
-42.16
-46.38
-51.39
-57.40
-64.12
-70.74
-76.06
-78.78
-77.97
-73.32
-65.22
-54.55
-42.36
-29.66
-17.17
-5.52
4.80
13.37
19.91
24.47
27.43
29.43
31.15
33.11
35.60
38.63
42.15
46.02
50.15
54.42
58.81
63.41
68.57
74.77
82.49
91.90
102.52
113.31
122.85
129.81
133.31
133.03
129.23
122.41
113.16
102.00
89.48
76.07
62.34
48.81
36.07
24.75
15.44
8.68
4.74
3.61
4.85
7.75
11.45
15.21
18.50
21.07
22.88
24.04
24.65
24.73
24.26
23.13
21.33
18.99
16.42
14.10
12.41
11.54
11.35
11.41
11.17
10.09
7.83
4.22
-0.72
-6.92
-14.26
-22.53
-31.39
-40.16
-47.96
-53.77
-56.78
-56.61
-53.52
-48.29
-42.11
-36.34
-32.35
-31.27
-33.68
-39.24
-46.39
-52.60
-55.02
-51.65
-42.19
-28.32
-13.10
0.28
9.74
14.92
17.05
18.11
19.87
23.28
28.44
34.75
41.38
47.32
51.60
53.27
51.67
46.67
38.77
29.02
18.60
8.42
-1.07
-9.86
-18.09
-25.76
-32.67
-38.60
-43.58
-48.00
-52.49
-57.66
-63.75
-70.63
-77.96
-85.33
-92.42
-98.80
-103.81
-106.38
-105.26
-99.49
-88.77
-73.90
-56.61
-39.01
-22.94
-9.45
1.25
9.47
15.56
19.64
21.60
21.41
19.42
16.38
13.26
10.81
9.32
8.55
8.01
7.17
5.71
3.47
0.37
-3.74
-9.04
-15.60
-23.20
-31.32
-39.22
-46.15
-51.62
-55.60
-58.39
-60.49
-62.25
-63.77
-64.86
-65.20
-64.62
-62.99
-60.31
-56.39
-50.85
-43.17
-32.96
-20.19
-5.34
10.72
26.90
42.10
55.20
65.15
70.98
72.09
68.59
61.63
53.32
46.41
43.52
46.29
54.72
67.11
80.45
91.46
97.60
97.76
92.29
82.37
69.24
53.62
35.78
16.04
-4.63
-24.44
-41.32
-53.72
-61.35
-65.40
-67.91
-70.86
-75.27
-80.94
-86.67
-90.86
-92.14
-89.78
-83.67
-74.24
-62.22
-48.46
-33.93
-19.58
-6.35
4.95
13.79
19.94
23.57
25.13
25.31
24.80
24.22
23.92
24.00
24.38
24.82
25.11
25.06
24.57
23.61
22.16
20.28
18.00
15.39
12.50
9.36
5.98
2.36
-1.59
-6.05
-11.22
-17.34
-24.44
-32.16
-39.72
-45.94
-49.57
-49.55
-45.51
-37.81
-27.51
-16.02
-4.69
5.55
14.25
21.37
27.03
31.33
34.28
35.88
36.20
35.51
34.14
32.44
30.58
28.61
26.49
24.21
21.79
19.30
16.73
13.98
10.95
7.53
3.71
-0.44
-4.80
-9.31
-14.00
-18.99
-24.51
-30.79
-37.94
-45.78
-53.74
-60.84
-65.81
-67.46
-64.99
-58.37
-48.27
-35.99
-22.96
-10.42
0.78
10.29
18.05
24.16
28.69
31.69
33.18
33.24
32.14
30.28
28.15
26.21
24.73
23.78
23.20
22.72
22.00
20.82
18.99
16.47
13.27
9.45
5.09
0.28
-4.97
-10.72
-17.14
-24.42
-32.71
-41.94
-51.61
-60.78
-68.12
-72.17
-71.78
-66.44
-56.48
-43.00
-27.51
-11.56
3.55
16.99
28.36
37.58
44.76
50.10
53.88
56.42
58.06
59.05
59.63
59.94
60.08
60.12
59.99
59.61
58.85
57.68
56.27
54.90
53.89
53.39
53.37
53.64
54.05
54.54
55.14
55.82
56.32
56.22
55.24
53.59
52.18
52.41
55.69
62.86
73.89
87.84
103.28
118.63
132.52
143.76
151.40
154.71
153.24
147.09
136.85
123.45
107.87
90.91
73.15
55.10
37.42
20.93
6.43
-5.59
-15.23
-23.09
-30.01
-36.67
-43.33
-49.76
-55.46
-59.95
-62.98
-64.64
-65.25
-65.18
-64.72
-64.03
-63.13
-61.99
-60.64
-59.07
-57.29
-55.12
-52.32
-48.57
-43.64
-37.55
-30.60
-23.30
-16.16
-9.56
-3.60
1.89
7.11
12.25
17.28
22.02
26.17
29.47
31.76
32.99
33.13
32.17
30.06
26.78
22.46
17.43
12.17
7.16
2.79
-0.80
-3.65
-5.85
-7.49
-8.62
-9.32
-9.73
-10.12
-10.90
-12.45
-15.06
-18.70
-23.07
-27.59
-31.66
-34.81
-36.85
-37.92
-38.31
-38.44
-38.54
-38.71
-38.88
-38.88
-38.48
-37.55
-36.06
-34.10
-31.88
-29.64
-27.57
-25.62
-23.62
-21.27
-18.37
-14.94
-11.25
-7.72
-4.78
-2.74
-1.75
-1.76
-2.65
-4.26
-6.49
-9.34
-12.87
-17.16
-22.27
-28.11
-34.43
-40.69
-46.15
-49.90
-51.09
-49.19
-44.07
-36.15
-26.31
-15.64
-5.24
4.00
11.55
17.19
21.00
23.21
24.09
23.92
22.88
21.08
18.67
15.80
12.76
9.86
7.39
5.60
4.48
3.91
3.52
2.93
1.79
-0.07
-2.65
-5.75
-9.12
-12.54
-15.83
-18.90
-21.71
-24.36
-27.05
-30.09
-33.72
-37.89
-42.06
-45.23
-46.14
-43.69
-37.42
-27.71
-15.70
-2.99
8.92
18.92
26.55
31.81
35.02
36.52
36.62
35.55
33.56
30.93
27.99
25.03
22.23
19.64
17.27
15.10
13.14
11.35
9.68
7.94
5.95
3.54
0.67
-2.57
-5.97
-9.33
-12.58
-15.75
-19.02
-22.63
-26.80
-31.65
-37.05
-42.53
-47.23
-50.09
-50.00
-46.19
-38.54
-27.60
-14.57
-0.90
11.99
23.00
31.48
37.25
40.45
41.45
40.79
39.01
36.67
34.18
31.79
29.61
27.56
25.51
23.30
20.85
18.17
15.41
12.77
10.45
8.51
6.81
5.04
2.78
-0.24
-4.02
-8.30
-12.62
-16.61
-20.13
-23.39
-26.84
-30.95
-36.00
-41.82
-47.80
-52.86
-55.78
-55.39
-50.95
-42.37
-30.26
-15.87
-0.77
13.55
25.98
35.94
43.33
48.35
51.30
52.45
52.05
50.41
47.93
45.07
42.28
39.82
37.75
35.95
34.28
32.64
31.11
29.80
28.86
28.32
28.08
27.98
27.79
27.30
26.35
24.79
22.55
19.68
16.38
12.97
9.84
7.27
5.44
4.31
3.75
3.55
3.58
3.79
4.23
4.98
6.07
7.46
8.96
10.35
11.38
11.85
11.64
10.70
9.07
6.83
4.08
0.90
-2.67
-6.61
-10.86
-15.31
-19.78
-23.97
-27.64
-30.60
-32.84
-34.49
-35.80
-37.01
-38.32
-39.82
-41.47
-43.18
-44.80
-46.23
-47.47
-48.52
-49.45
-50.26
-50.99
-51.60
-52.12
-52.59
-53.07
-53.63
-54.30
-55.13
-56.15
-57.43
-58.98
-60.61
-61.84
-61.86
-59.74
-54.69
-46.44
-35.35
-22.35
-8.66
4.59
16.62
27.08
35.89
43.11
48.75
52.84
55.47
56.92
57.64
58.10
58.63
59.15
59.26
58.24
55.45
50.55
43.72
35.58
27.01
18.87
11.69
5.70
0.88
-2.77
-5.15
-6.20
-6.05
-5.19
-4.37
-4.30
-5.26
-6.89
-8.38
-8.90
-8.05
-6.06
-3.58
-1.27
0.52
1.84
2.88
3.62
3.87
3.52
2.97
3.28
5.82
11.58
20.32
30.36
39.00
43.73
43.27
38.24
30.85
23.99
20.02
19.99
23.42
28.69
33.67
36.26
34.81
28.50
17.63
3.78
-10.54
-22.65
-30.74
-34.58
-35.63
-36.18
-38.36
-43.18
-50.22
-58.07
-64.94
-69.50
-71.15
-70.11
-67.19
-63.52
-60.21
-58.07
-57.45
-58.13
-59.57
-61.20
-62.60
-63.43
-63.29
-61.60
-57.79
-51.71
-43.91
-35.68
-28.46
-23.26
-20.19
-18.40
-16.67
-14.03
-10.32
-6.09
-2.28
0.42
1.81
2.27
2.38
2.66
3.36
4.38
5.47
6.34
6.78
6.76
6.34
5.65
4.79
3.81
2.68
1.38
-0.03
-1.47
-2.84
-4.15
-5.53
-7.24
-9.44
-12.12
-14.93
-17.31
-18.66
-18.55
-16.86
-13.77
-9.68
-4.98
0.02
5.18
10.45
15.76
20.99
25.88
30.13
33.48
35.79
37.09
37.47
37.13
36.25
34.93
33.30
31.43
29.36
27.19
24.94
22.62
20.22
17.67
14.94
12.07
9.11
6.24
3.62
1.32
-0.65
-2.40
-4.09
-5.84
-7.69
-9.61
-11.52
-13.41
-15.28
-17.19
-19.12
-20.89
-22.19
-22.61
-21.80
-19.60
-16.03
-11.28
-5.60
0.74
7.49
14.30
20.72
26.18
30.20
32.48
33.01
32.07
30.06
27.47
24.64
21.79
19.04
16.44
14.04
11.85
9.89
8.12
6.49
4.90
3.22
1.28
-1.02
-3.74
-6.83
-10.15
-13.50
-16.74
-19.79
-22.64
-25.37
-28.09
-30.93
-34.00
-37.33
-40.76
-43.97
-46.42
-47.56
-46.95
-44.44
-40.12
-34.30
-27.33
-19.57
-11.38
-3.25
4.15
10.09
13.90
15.25
14.27
11.50
7.63
3.31
-1.09
-5.40
-9.58
-13.50
-16.93
-19.59
-21.34
-22.23
-22.54
-22.59
-22.69
-22.98
-23.70
-25.06
-27.42
-30.98
-35.64
-40.84
-45.61
-49.01
-50.56
-50.57
-50.00
-50.14
-51.90
-55.35
-59.62
-63.06
-63.89
-60.58
-52.40
-39.44
-22.58
-3.25
16.83
35.99
52.78
66.21
75.79
81.58
84.02
83.80
81.73
78.58
75.02
71.58
68.52
65.98
63.88
62.13
60.57
59.07
57.46
55.53
53.03
49.67
45.27
39.79
33.44
26.65
20.00
14.05
9.19
5.49
2.67
0.12
-2.96
-7.22
-12.92
-19.74
-26.67
-32.26
-34.95
-33.57
-27.68
-17.74
-4.98
8.97
22.53
34.52
44.28
51.54
56.27
58.54
58.46
56.33
52.69
48.27
43.85
39.98
36.84
34.29
32.00
29.69
27.26
24.80
22.47
20.34
18.32
16.16
13.56
10.28
6.32
1.93
-2.52
-6.66
-10.30
-13.58
-16.92
-20.81
-25.63
-31.38
-37.72
-43.94
-49.16
-52.40
-52.75
-49.54
-42.54
-32.13
-19.40
-5.94
6.50
16.50
23.28
26.81
27.59
26.42
24.16
21.53
19.05
17.01
15.45
14.15
12.74
10.81
8.14
4.70
0.66
-3.77
-8.43
-13.27
-18.32
-23.59
-28.99
-34.37
-39.59
-44.50
-49.08
-53.41
-57.66
-62.07
-66.81
-71.82
-76.60
-79.98
-80.21
-75.28
-63.67
-44.97
-20.31
7.78
36.07
61.54
82.21
97.48
107.83
114.27
117.70
118.66
117.34
113.88
108.61
102.17
95.25
88.46
82.10
76.23
70.75
65.67
61.14
57.33
54.37
52.12
50.17
47.94
44.82
40.33
34.26
26.67
17.86
8.25
-1.69
-11.64
-21.34
-30.67
-39.33
-46.88
-52.62
-55.75
-55.81
-52.80
-47.48
-41.07
-34.95
-30.20
-27.35
-26.35
-26.81
-28.27
-30.41
-33.17
-36.62
-40.95
-46.37
-52.98
-60.74
-69.36
-78.35
-86.89
-94.09
-99.08
-101.30
-100.58
-97.22
-91.97
-85.71
-79.41
-73.76
-69.15
-65.72
-63.48
-62.46
-62.84
-64.84
-68.49
-73.34
-78.18
-81.11
-79.90
-72.65
-58.44
-37.86
-12.96
13.33
38.02
58.84
74.73
85.76
92.70
96.53
98.02
97.60
95.37
91.35
85.55
78.15
69.52
60.19
50.77
41.77
33.47
25.90
18.83
11.97
5.00
-2.28
-9.95
-17.97
-26.11
-33.99
-41.12
-47.09
-51.86
-55.93
-60.36
-66.46
-75.20
-86.58
-99.22
-110.55
-117.38
-117.05
-108.33
-91.94
-70.34
-46.93
-25.06
-7.05
6.09
14.60
19.42
21.63
22.09
21.27
19.40
16.61
13.10
9.11
4.91
0.70
-3.42
-7.42
-11.24
-14.72
-17.68
-19.97
-21.75
-23.48
-25.93
-29.98
-36.26
-45.01
-55.85
-67.98
-80.39
-92.30
-103.46
-114.29
-125.72
-138.82
-154.22
-171.55
-189.23
-204.52
-214.19
-215.42
-206.62
-187.99
-161.39
-129.83
-96.59
-64.54
-35.60
-10.77
9.75
26.29
39.43
49.83
58.09
64.76
70.17
74.54
77.98
80.43
81.88
82.39
82.20
81.71
81.54
82.14
83.67
85.79
87.74
88.61
87.67
84.67
79.84
73.74
67.01
60.10
53.14
45.85
37.71
28.10
16.70
3.79
-9.48
-21.16
-28.93
-30.73
-25.36
-12.93
5.20
26.70
48.88
69.26
86.09
98.57
106.77
111.41
113.39
113.53
112.32
110.02
106.72
102.57
97.82
92.78
87.71
82.79
78.16
73.94
70.29
67.26
64.78
62.45
59.70
55.90
50.61
43.76
35.65
26.83
17.89
9.22
0.84
-7.54
-16.48
-26.58
-38.25
-51.41
-65.29
-78.38
-88.62
-93.91
-92.58
-83.99
-68.68
-48.29
-25.06
-1.28
21.16
41.06
57.76
71.05
80.86
87.23
90.37
90.69
88.84
85.64
81.91
78.25
74.96
72.03
69.29
66.61
63.98
61.56
59.56
58.05
56.86
55.53
53.41
49.95
44.89
38.39
31.01
23.43
16.24
9.63
3.45
-2.80
-9.74
-17.92
-27.73
-39.07
-51.25
-62.85
-71.85
-76.06
-73.77
-64.33
-48.48
-28.12
-5.79
16.06
35.65
51.98
64.77
74.09
80.09
82.96
82.94
80.47
76.19
70.94
65.47
60.38
55.94
52.17
48.90
45.99
43.41
41.23
39.48
38.10
36.81
35.15
32.63
28.87
23.76
17.44
10.35
3.04
-4.01
-10.52
-16.54
-22.46
-28.96
-36.81
-46.49
-57.89
-70.04
-81.16
-89.01
-91.55
-87.49
-76.75
-60.41
-40.36
-18.75
2.54
22.09
38.99
52.68
62.80
69.27
72.27
72.35
70.33
67.14
63.56
60.10
56.96
54.11
51.47
49.01
46.85
45.12
43.95
43.28
42.83
42.13
40.64
37.91
33.78
28.40
22.21
15.71
9.31
3.14
-3.00
-9.54
-17.03
-25.93
-36.32
-47.67
-58.79
-67.89
-73.03
-72.59
-65.87
-53.23
-36.07
-16.39
3.78
22.80
39.62
53.67
64.72
72.67
77.48
79.27
78.43
75.61
71.65
67.34
63.23
59.56
56.14
52.68
48.82
44.42
39.59
34.65
30.03
25.95
22.31
18.63
14.28
8.71
1.81
-6.02
-14.09
-21.68
-28.49
-34.68
-40.88
-47.81
-56.09
-65.95
-77.08
-88.61
-99.06
-106.66
-109.60
-106.57
-97.17
-82.04
-62.75
-41.26
-19.56
0.80
18.78
33.80
45.56
54.00
59.17
61.39
61.17
59.18
56.18
52.77
49.32
45.93
42.50
38.91
35.17
31.48
28.18
25.56
23.69
22.31
20.83
18.60
15.05
9.95
3.50
-3.81
-11.33
-18.53
-25.18
-31.39
-37.59
-44.35
-52.21
-61.46
-71.92
-82.75
-92.54
-99.46
-101.74
-98.21
-88.60
-73.71
-55.12
-34.76
-14.47
4.32
20.63
33.88
43.79
50.32
53.69
54.30
52.76
49.71
45.76
41.41
36.95
32.58
28.37
24.42
20.90
18.02
15.95
14.67
13.92
13.12
11.57
8.69
4.25
-1.56
-8.13
-14.72
-20.74
-25.94
-30.55
-35.16
-40.57
-47.44
-56.01
-65.85
-75.79
-84.11
-88.89
-88.56
-82.33
-70.43
-54.01
-34.81
-14.71
4.61
21.86
36.22
47.21
54.73
58.90
60.15
59.05
56.27
52.51
48.32
44.08
40.01
36.14
32.43
28.84
25.41
22.26
19.53
17.27
15.35
13.38
10.87
7.38
2.71
-2.99
-9.32
-15.79
-21.95
-27.63
-32.96
-38.31
-44.21
-51.09
-58.99
-67.37
-75.01
-80.21
-81.25
-76.93
-66.97
-52.07
-33.74
-13.81
5.96
24.24
40.12
53.09
62.96
69.69
73.46
74.58
73.48
70.65
66.59
61.80
56.66
51.47
46.34
41.35
36.55
32.05
28.04
24.66
21.90
19.53
17.10
14.05
9.99
4.72
-1.60
-8.58
-15.76
-22.78
-29.49
-35.95
-42.45
-49.34
-56.96
-65.46
-74.58
-83.52
-90.95
-95.20
-94.73
-88.67
-77.16
-61.34
-43.08
-24.37
-6.84
8.53
21.31
31.47
39.08
44.22
47.03
47.82
47.07
45.34
43.17
40.86
38.47
35.93
33.11
30.01
26.78
23.66
20.90
18.64
16.86
15.33
13.69
11.50
8.44
4.36
-0.56
-5.99
-11.45
-16.59
-21.28
-25.70
-30.25
-35.47
-41.81
-49.52
-58.51
-68.19
-77.45
-84.76
-88.45
-87.20
-80.41
-68.50
-52.80
-35.18
-17.52
-1.29
12.65
23.96
32.60
38.62
42.13
43.37
42.68
40.58
37.61
34.31
31.02
27.89
24.96
22.12
19.27
16.33
13.32
10.33
7.47
4.81
2.28
-0.33
-3.34
-7.03
-11.54
-16.76
-22.36
-27.84
-32.77
-36.95
-40.49
-43.85
-47.66
-52.46
-58.51
-65.54
-72.69
-78.68
-81.98
-81.28
-75.80
-65.53
-51.31
-34.56
-16.98
-0.14
14.81
27.21
36.84
43.80
48.35
50.80
51.50
50.82
49.12
46.79
44.26
41.87
39.86
38.25
36.89
35.52
33.90
31.93
29.70
27.43
25.27
23.19
20.93
18.11
14.41
9.67
4.09
-1.96
-8.00
-13.66
-18.72
-23.23
-27.39
-31.56
-36.20
-41.71
-48.40
-56.22
-64.57
-72.28
-77.75
-79.36
-75.99
-67.36
-54.17
-37.87
-20.24
-2.93
12.78
26.08
36.56
44.08
48.66
50.53
50.08
47.88
44.55
40.65
36.68
32.96
29.67
26.88
24.56
22.63
21.05
19.82
19.01
18.70
18.86
19.34
19.83
19.86
19.05
17.13
14.12
10.22
5.75
1.00
-3.91
-8.97
-14.30
-20.06
-26.42
-33.50
-41.27
-49.39
-57.01
-62.79
-65.15
-62.78
-55.13
-42.75
-27.11
-10.16
6.40
21.38
34.27
44.93
53.24
58.96
61.76
61.54
58.56
53.52
47.35
40.93
34.88
29.43
24.54
20.06
15.86
11.93
8.40
5.37
2.90
0.94
-0.71
-2.37
-4.35
-6.90
-10.14
-13.95
-18.04
-22.02
-25.59
-28.65
-31.33
-34.04
-37.27
-41.49
-46.99
-53.74
-61.20
-68.36
-73.82
-76.11
-74.14
-67.55
-56.84
-43.19
-28.11
-13.02
1.01
13.29
23.42
31.15
36.38
39.16
39.82
38.90
37.04
34.81
32.51
30.21
27.79
25.12
22.16
19.05
16.08
13.59
11.75
10.46
9.32
7.80
5.36
1.80
-2.76
-7.87
-12.97
-17.68
-21.89
-25.81
-29.84
-34.43
-39.90
-46.41
-53.79
-61.48
-68.45
-73.33
-74.67
-71.47
-63.48
-51.42
-36.68
-20.94
-5.69
8.06
19.83
29.45
36.87
42.08
45.05
45.93
45.12
43.18
40.75
38.29
35.99
33.75
31.36
28.70
25.89
23.25
21.21
19.93
19.25
18.62
17.40
15.11
11.61
7.16
2.22
-2.82
-7.70
-12.44
-17.23
-22.36
-28.13
-34.81
-42.46
-50.80
-59.08
-66.09
-70.46
-70.94
-66.92
-58.54
-46.67
-32.60
-17.67
-3.05
10.42
22.20
31.95
39.49
44.86
48.27
50.05
50.62
50.26
49.16
47.42
45.05
42.10
38.67
34.89
30.97
27.10
23.46
20.13
17.01
13.91
10.50
6.53
1.93
-3.11
-8.21
-13.01
-17.27
-21.07
-24.77
-28.94
-34.11
-40.59
-48.31
-56.57
-64.15
-69.52
-71.26
-68.47
-61.11
-49.94
-36.31
-21.68
-7.25
6.11
17.93
27.85
35.57
40.89
43.77
44.54
43.78
42.22
40.42
38.72
37.11
35.43
33.51
31.29
28.89
26.54
24.41
22.56
20.88
19.13
17.02
14.32
10.97
7.11
2.98
-1.08
-4.87
-8.33
-11.68
-15.31
-19.69
-25.25
-32.15
-40.13
-48.37
-55.58
-60.23
-60.95
-57.02
-48.61
-36.80
-23.20
-9.44
3.29
14.40
23.84
31.75
38.19
43.07
46.20
47.55
47.35
46.02
44.07
41.82
39.35
36.60
33.54
30.36
27.39
25.05
23.52
22.64
21.93
20.79
18.67
15.38
11.00
5.89
0.47
-4.89
-9.97
-14.81
-19.61
-24.78
-30.75
-37.85
-46.08
-54.93
-63.33
-69.84
-72.94
-71.57
-65.43
-55.16
-42.09
-27.82
-13.79
-0.98
10.14
19.42
26.81
32.29
35.87
37.70
38.10
37.55
36.47
35.15
33.68
31.97
29.90
27.49
24.87
22.31
20.09
18.35
16.97
15.62
13.81
11.13
7.43
2.87
-2.12
-7.03
-11.50
-15.57
-19.53
-23.96
-29.39
-36.11
-43.97
-52.28
-59.88
-65.33
-67.28
-64.87
-57.99
-47.32
-34.19
-20.13
-6.52
5.68
15.89
23.90
29.68
33.33
35.06
35.21
34.21
32.49
30.35
27.93
25.22
22.17
18.77
15.15
11.55
8.22
5.35
2.93
0.77
-1.45
-4.13
-7.55
-11.83
-16.87
-22.37
-27.98
-33.37
-38.35
-42.97
-47.50
-52.34
-57.86
-64.13
-70.69
-76.41
-79.72
-78.97
-73.03
-61.68
-45.68
-26.45
-5.57
15.58
35.94
54.61
70.61
82.92
90.66
93.61
92.35
88.16
82.46
76.26
69.83
62.78
54.53
44.79
33.83
22.43
11.57
2.14
-5.27
-10.39
-13.20
-13.83
-12.45
-9.26
-4.43
1.87
9.54
18.38
28.13
38.26
48.10
56.73
63.14
66.27
65.30
59.93
50.70
39.12
27.35
17.71
11.91
10.52
12.81
17.11
21.38
23.88
23.61
20.44
15.11
8.87
3.27
-0.29
-0.91
1.54
6.42
12.48
18.33
22.82
25.36
25.90
24.82
22.68
20.04
17.30
14.61
11.84
8.61
4.45
-1.06
-8.02
-16.17
-25.00
-33.83
-42.12
-49.52
-55.90
-61.32
-65.96
-70.05
-73.87
-77.60
-81.17
-84.06
-85.31
-83.65
-77.97
-67.75
-53.43
-36.37
-18.52
-1.80
12.44
23.65
32.06
38.20
42.54
45.34
46.66
46.59
45.43
43.65
41.71
39.78
37.70
35.10
31.80
28.00
24.31
21.49
20.02
19.90
20.59
21.29
21.27
20.15
17.94
14.94
11.49
7.84
4.16
0.49
-3.12
-6.65
-10.14
-13.80
-17.86
-22.40
-27.22
-31.71
-34.89
-35.79
-33.80
-28.95
-21.91
-13.78
-5.70
1.41
6.97
10.72
12.54
12.45
10.61
7.33
3.10
-1.54
-6.12
-10.38
-14.29
-17.97
-21.62
-25.32
-29.04
-32.54
-35.52
-37.62
-38.57
-38.28
-36.83
-34.45
-31.40
-27.97
-24.35
-20.75
-17.43
-14.71
-12.92
-12.34
-13.09
-15.13
-18.27
-22.21
-26.57
-30.75
-34.01
-35.44
-34.20
-29.78
-22.14
-11.78
0.39
13.21
25.54
36.40
45.10
51.25
54.77
55.83
54.81
52.17
48.39
43.96
39.30
34.75
30.53
26.70
23.12
19.58
15.86
11.90
7.83
3.81
-0.08
-3.96
-8.17
-13.03
-18.69
-24.90
-31.19
-36.94
-41.78
-45.72
-49.10
-52.38
-55.96
-60.06
-64.72
-69.86
-75.25
-80.32
-84.11
-85.37
-82.90
-76.04
-64.97
-50.69
-34.71
-18.48
-3.08
10.89
23.12
33.25
40.90
45.72
47.69
47.37
45.72
43.91
42.75
42.50
42.77
42.84
42.02
39.98
36.81
32.91
28.74
24.62
20.65
16.83
13.07
9.14
4.55
-1.36
-9.23
-19.26
-30.94
-43.00
-53.92
-62.50
-68.47
-72.59
-76.12
-80.08
-84.55
-88.52
-90.38
-88.77
-83.15
-74.05
-62.52
-49.65
-36.12
-22.16
-7.96
6.17
19.58
31.49
41.25
48.55
53.41
56.06
56.84
56.12
54.40
52.20
49.98
48.01
46.30
44.76
43.28
41.87
40.56
39.26
37.66
35.30
31.81
27.13
21.65
16.03
10.90
6.57
2.88
-0.67
-4.70
-9.66
-15.78
-23.02
-31.13
-39.56
-47.37
-53.30
-55.93
-54.14
-47.56
-36.73
-22.92
-7.69
7.58
21.94
34.80
45.60
53.67
58.34
59.24
56.71
51.91
46.55
42.34
40.44
41.18
44.07
48.20
52.57
56.49
59.69
62.24
64.38
66.20
67.50
67.80
66.53
63.36
58.42
52.35
46.00
40.11
34.97
30.36
25.75
20.58
14.48
7.33
-0.80
-9.60
-18.46
-26.49
-32.55
-35.56
-34.82
-30.21
-22.22
-11.88
-0.48
10.62
20.16
27.14
31.04
31.94
30.52
27.90
25.24
23.38
22.70
23.09
24.14
25.34
26.05
25.59
23.32
18.94
12.70
5.43
-1.68
-7.60
-11.85
-14.80
-17.25
-19.95
-23.15
-26.65
-29.99
-32.83
-35.02
-36.65
-38.09
-39.73
-41.85
-44.53
-47.58
-50.42
-52.11
-51.56
-48.00
-41.78
-33.91
-25.70
-18.10
-11.48
-5.61
0.06
6.09
12.75
18.83
23.08
24.72
23.72
20.40
15.11
8.11
-0.16
-8.94
-19.57
-32.86
-48.59
-65.54
-82.30
-98.20
-113.40
-128.30
-143.14
-161.57
-186.00
-216.39
-250.24
-284.04
-315.12
-342.28
-365.15
-383.73
-402.91
-425.97
-452.77
-479.60
-501.36
-514.23
-517.10
-510.86
-471.10
-387.20
-264.45
-123.37
12.63
129.20
222.76
295.38
348.93
389.42
415.36
425.12
419.92
404.71
385.98
369.18
354.50
341.90
331.07
317.75
299.32
276.09
251.24
228.82
211.67
200.51
194.91
193.73
193.08
190.15
184.03
175.55
166.02
156.11
145.48
133.74
120.66
105.10
86.84
66.79
46.75
28.62
13.67
2.25
-5.72
-10.73
-13.97
-16.39
-18.45
-20.18
-21.48
-22.47
-23.48
-24.86
-26.86
-29.75
-33.55
-38.17
-43.23
-48.12
-51.98
-54.02
-53.72
-51.16
-47.06
-42.47
-38.37
-35.28
-33.19
-31.62
-30.15
-28.69
-27.45
-26.91
-27.41
-29.06
-31.64
-34.72
-37.71
-40.08
-41.41
-41.43
-40.12
-37.65
-34.46
-31.18
-28.59
-27.46
-28.42
-31.73
-37.08
-43.54
-49.50
-53.12
-52.69
-47.27
-36.95
-22.92
-7.06
8.64
22.54
33.72
41.93
47.41
50.64
52.12
52.30
51.56
50.26
48.65
46.91
45.06
43.01
40.66
37.91
34.75
31.24
27.46
23.51
19.52
15.59
11.79
8.14
4.54
0.83
-3.17
-7.50
-12.04
-16.51
-20.55
-23.97
-26.82
-29.47
-32.49
-36.50
-41.88
-48.63
-56.20
-63.48
-68.96
-71.09
-68.73
-61.64
-50.55
-36.94
-22.56
-8.76
3.72
14.81
24.69
33.43
40.82
46.51
50.31
52.46
53.61
54.41
55.30
56.27
57.15
57.92
58.90
60.73
63.89
68.38
73.50
78.03
80.62
80.14
75.83
67.35
54.68
38.19
18.75
-2.27
-23.10
-42.01
-57.75
-69.90
-78.89
-85.74
-91.76
-98.02
-105.05
-112.58
-119.62
-124.61
-125.96
-122.57
-114.21
-101.56
-86.03
-69.25
-52.70
-37.41
-23.94
-12.56
-3.42
3.41
7.96
10.46
11.40
11.47
11.37
11.66
12.55
13.87
15.22
16.26
16.86
17.22
17.70
18.63
20.01
21.44
22.32
22.04
20.25
16.98
12.58
7.57
2.41
-2.59
-7.36
-12.03
-16.86
-22.24
-28.59
-36.15
-44.81
-53.89
-62.12
-67.84
-69.43
-65.82
-56.88
-43.47
-27.25
-10.13
6.20
20.59
32.52
41.83
48.58
52.81
54.69
54.53
52.90
50.54
48.20
46.36
45.12
44.24
43.37
42.26
40.86
39.36
38.00
36.87
35.85
34.58
32.65
29.74
25.73
20.76
15.16
9.37
3.77
-1.41
-6.21
-10.87
-15.75
-21.33
-27.97
-35.83
-44.69
-53.82
-61.95
-67.49
-68.92
-65.23
-56.33
-43.13
-27.26
-10.60
5.22
19.17
30.74
39.89
46.71
51.32
53.86
54.54
53.74
52.01
49.91
47.94
46.36
45.15
44.07
42.83
41.23
39.27
37.17
35.23
33.60
32.20
30.69
28.58
25.45
21.15
15.88
10.07
4.26
-1.21
-6.20
-10.88
-15.60
-20.77
-26.73
-33.65
-41.31
-49.03
-55.61
-59.62
-59.73
-55.19
-46.08
-33.37
-18.61
-3.47
10.62
22.78
32.58
39.97
45.03
47.97
49.04
48.63
47.24
45.39
43.52
41.86
40.37
38.89
37.25
35.42
33.54
31.89
30.61
29.65
28.62
26.99
24.28
20.26
15.06
9.09
2.89
-3.10
-8.68
-13.92
-19.08
-24.58
-30.82
-38.01
-46.04
-54.30
-61.64
-66.62
-67.83
-64.41
-56.35
-44.52
-30.38
-15.48
-1.14
11.76
22.74
31.55
38.09
42.43
44.81
45.67
45.56
44.94
44.10
43.05
41.67
39.86
37.67
35.27
32.94
30.93
29.37
28.21
27.15
25.79
23.69
20.50
16.12
10.74
4.77
-1.25
-6.86
-11.88
-16.51
-21.23
-26.66
-33.28
-41.21
-50.02
-58.71
-65.86
-69.99
-69.95
-65.24
-56.19
-43.83
-29.59
-14.96
-1.18
10.97
21.12
29.16
35.15
39.22
41.55
42.45
42.34
41.68
40.85
40.03
39.13
37.94
36.23
33.96
31.37
28.90
26.99
25.84
25.24
24.70
23.56
21.39
18.20
14.49
11.24
9.59
10.55
14.66
21.64
30.39
38.98
45.02
46.32
41.60
31.17
17.06
2.53
-8.97
-14.87
-14.17
-7.59
3.12
15.86
28.89
40.98
51.34
59.25
64.09
65.40
63.25
58.34
51.80
44.88
38.48
32.93
28.00
23.20
18.13
12.67
7.11
1.83
-2.77
-6.56
-9.69
-12.57
-15.73
-19.61
-24.44
-30.16
-36.46
-42.82
-48.78
-54.07
-58.72
-63.00
-67.30
-71.99
-77.23
-82.93
-88.61
-93.47
-96.45
-96.50
-92.82
-85.18
-74.05
-60.48
-45.81
-31.38
-18.22
-6.94
2.16
9.03
13.76
16.56
17.74
17.71
16.94
15.89
14.84
13.94
13.14
12.29
11.20
9.81
8.18
6.55
5.17
4.18
3.47
2.67
1.31
-0.99
-4.29
-8.32
-12.58
-16.57
-20.06
-23.10
-26.05
-29.34
-33.32
-38.15
-43.74
-49.72
-55.39
-59.81
-61.88
-60.63
-55.59
-46.96
-35.64
-22.97
-10.34
1.16
10.89
18.62
24.36
28.26
30.52
31.41
31.27
30.49
29.39
28.21
27.05
25.85
24.52
22.99
21.27
19.51
17.90
16.65
15.81
15.22
14.56
13.44
11.62
9.04
5.88
2.49
-0.85
-3.92
-6.71
-9.40
-12.25
-15.61
-19.79
-24.88
-30.67
-36.51
-41.37
-44.09
-43.76
-40.01
-33.16
-24.16
-14.17
-4.24
4.90
12.90
19.68
25.23
29.52
32.52
34.25
34.88
34.61
33.74
32.49
31.02
29.47
27.97
26.66
25.70
25.22
25.27
25.81
26.68
27.69
28.70
29.73
30.94
32.51
34.44
36.33
37.49
37.13
34.74
30.21
23.90
16.32
7.82
-1.39
-11.07
-20.59
-28.83
-34.45
-36.44
-34.57
-29.38
-21.86
-12.85
-2.88
7.81
18.79
29.11
37.39
42.26
43.01
39.92
34.35
28.14
23.05
20.17
19.72
21.20
23.79
26.64
29.18
31.13
32.42
33.09
33.35
33.62
34.64
37.21
41.93
48.73
56.68
64.12
69.15
70.23
66.59
58.39
46.53
32.36
17.36
2.94
-9.77
-19.99
-27.43
-32.26
-35.05
-36.57
-37.50
-38.20
-38.67
-38.63
-37.84
-36.35
-34.65
-33.53
-33.68
-35.32
-38.02
-40.83
-42.72
-43.12
-42.19
-40.77
-40.01
-40.87
-43.72
-48.15
-52.96
-56.41
-56.56
-51.72
-41.08
-25.34
-6.97
10.13
21.64
24.37
17.54
3.29
-13.99
-29.17
-38.29
-39.68
-34.30
-24.88
-14.72
-6.53
-1.85
-1.16
-4.10
-9.85
-17.24
-24.85
-31.19
-35.03
-35.77
-33.60
-29.44
-24.51
-20.01
-16.83
-15.56
-16.59
-20.14
-26.15
-34.01
-42.53
-50.03
-54.80
-55.68
-52.44
-45.71
-36.67
-26.92
-18.45
-13.74
-15.23
-24.37
-40.50
-60.32
-78.57
-89.82
-90.67
-81.06
-64.19
-44.82
-27.25
-13.68
-4.01
3.16
9.19
14.37
17.89
18.60
15.94
10.39
3.23
-4.15
-11.26
-18.86
-28.31
-40.17
-53.05
-63.54
-67.49
-62.25
-48.29
-29.32
-10.60
3.61
11.82
15.49
17.46
19.79
22.39
23.17
19.49
9.81
-5.24
-23.27
-40.99
-55.41
-64.35
-66.53
-61.57
-50.05
-33.57
-14.74
3.38
18.01
27.42
31.27
30.41
26.52
21.67
18.04
17.56
21.60
30.42
42.89
56.56
68.41
75.84
77.50
73.56
65.35
54.64
43.09
31.92
21.95
13.66
7.30
2.88
0.12
-1.44
-2.42
-3.57
-5.63
-9.29
-15.09
-23.16
-33.09
-43.94
-54.37
-63.06
-69.05
-72.06
-72.51
-71.30
-69.48
-67.87
-66.94
-66.67
-66.66
-66.14
-64.18
-59.77
-52.09
-40.76
-25.98
-8.57
10.23
29.11
46.91
62.76
76.10
86.55
93.87
97.98
98.99
97.26
93.29
87.71
81.12
74.07
67.08
60.62
55.04
50.53
47.00
44.11
41.42
38.54
35.31
31.89
28.57
25.67
23.25
21.07
18.55
14.93
9.45
1.57
-8.89
-21.58
-35.51
-49.23
-61.00
-69.28
-73.01
-71.88
-66.30
-57.19
-45.76
-33.25
-20.75
-9.18
0.83
8.86
14.72
18.32
19.68
18.84
15.96
11.32
5.40
-1.21
-7.92
-14.23
-19.85
-24.54
-28.29
-31.15
-33.40
-35.45
-37.72
-40.56
-44.01
-47.86
-51.72
-55.26
-58.44
-61.53
-65.07
-69.61
-75.30
-81.71
-87.68
-91.58
-91.65
-86.56
-75.84
-60.00
-40.44
-18.99
2.50
22.50
40.07
54.66
66.10
74.43
79.92
82.92
83.87
83.25
81.46
78.85
75.76
72.49
69.32
66.39
63.71
61.18
58.61
55.86
52.84
49.55
45.94
41.94
37.42
32.29
26.50
20.03
12.82
4.73
-4.32
-14.08
-23.84
-32.32
-37.96
-39.38
-35.86
-27.64
-15.85
-2.13
11.81
24.63
35.52
44.17
50.54
54.73
56.88
57.14
55.74
52.94
49.04
44.37
39.28
34.16
29.45
25.55
22.70
20.93
19.98
19.42
18.72
17.53
15.61
12.96
9.65
5.81
1.51
-3.23
-8.54
-14.71
-22.11
-31.00
-41.20
-51.79
-61.15
-67.24
-68.25
-63.20
-52.35
-37.15
-19.77
-2.41
13.23
26.17
36.14
43.27
47.81
49.97
49.99
48.19
45.08
41.29
37.44
33.97
31.07
28.73
26.79
25.13
23.65
22.25
20.73
18.79
16.10
12.43
7.78
2.41
-3.29
-8.98
-14.55
-20.20
-26.36
-33.54
-42.01
-51.55
-61.26
-69.67
-74.94
-75.41
-69.96
-58.45
-41.72
-21.42
0.36
21.59
40.59
56.20
67.89
75.61
79.74
80.89
79.83
77.31
73.94
70.19
66.34
62.52
58.75
55.05
51.51
48.26
45.44
43.12
41.14
39.09
36.41
32.58
27.32
20.78
13.46
6.06
-0.85
-7.02
-12.64
-18.20
-24.32
-31.49
-39.80
-48.77
-57.29
-63.79
-66.58
-64.33
-56.47
-43.41
-26.49
-7.65
11.06
27.96
41.93
52.55
59.84
64.12
65.78
65.22
62.86
59.24
55.03
50.88
47.34
44.62
42.57
40.85
39.06
37.00
34.75
32.57
30.71
29.22
27.83
26.09
23.53
19.84
15.01
9.33
3.22
-2.85
-8.55
-13.71
-18.41
-22.87
-27.49
-32.68
-38.74
-45.63
-52.82
-59.24
-63.49
-64.20
-60.51
-52.38
-40.60
-26.60
-12.03
1.62
13.30
22.46
28.94
32.90
34.61
34.43
32.75
29.90
26.24
22.14
17.98
14.13
10.93
8.53
6.90
5.84
5.07
4.43
3.82
3.28
2.87
2.59
2.29
1.77
0.82
-0.65
-2.61
-4.91
-7.32
-9.70
-11.91
-13.95
-15.90
-17.89
-20.07
-22.58
-25.57
-29.10
-33.13
-37.36
-41.20
-43.80
-44.24
-41.79
-36.18
-27.80
-17.58
-6.75
3.49
12.20
18.80
23.04
24.93
24.62
22.40
18.66
13.86
8.46
2.93
-2.34
-7.03
-10.94
-13.94
-15.96
-16.99
-17.06
-16.26
-14.69
-12.54
-9.95
-6.96
-3.53
0.47
5.15
10.50
16.37
22.48
28.49
34.14
39.20
43.47
46.72
48.70
49.20
48.13
45.58
41.71
36.69
30.62
23.58
15.77
7.69
0.10
-6.07
-10.00
-11.23
-9.77
-6.14
-1.18
4.18
9.08
12.92
15.41
16.51
16.36
15.17
13.15
10.52
7.52
4.44
1.60
-0.75
-2.48
-3.62
-4.36
-4.88
-5.32
-5.69
-5.98
-6.17
-6.33
-6.55
-6.94
-7.54
-8.28
-9.07
-9.78
-10.38
-10.85
-11.22
-11.54
-11.86
-12.26
-12.81
-13.56
-14.50
-15.62
-16.87
-18.33
-20.10
-22.32
-24.99
-27.85
-30.37
-31.84
-31.58
-29.19
-24.72
-18.64
-11.79
-5.05
0.81
5.32
8.34
9.96
10.39
9.84
8.49
6.49
4.07
1.50
-0.87
-2.75
-3.93
-4.41
-4.32
-3.92
-3.46
-3.12
-2.98
-3.02
-3.17
-3.42
-3.80
-4.40
-5.32
-6.62
-8.26
-10.10
-11.99
-13.83
-15.62
-17.44
-19.33
-21.24
-23.07
-24.72
-26.24
-27.82
-29.63
-31.70
-33.67
-34.92
-34.73
-32.60
-28.47
-22.76
-16.19
-9.53
-3.37
1.91
6.11
9.11
10.85
11.31
10.61
9.00
6.87
4.59
2.49
0.75
-0.55
-1.45
-2.01
-2.27
-2.31
-2.19
-1.97
-1.68
-1.39
-1.14
-1.10
-1.50
-2.58
-4.47
-7.06
-10.03
-12.92
-15.36
-17.20
-18.57
-19.75
-21.00
-22.51
-24.28
-26.30
-28.53
-30.93
-33.32
-35.36
-36.46
-36.04
-33.68
-29.31
-23.32
-16.43
-9.44
-3.02
2.41
6.67
9.74
11.63
12.38
12.03
10.71
8.64
6.18
3.66
1.36
-0.57
-2.15
-3.47
-4.65
-5.71
-6.62
-7.34
-7.89
-8.34
-8.93
-9.86
-11.27
-13.18
-15.50
-18.11
-20.94
-23.93
-26.99
-29.94
-32.51
-34.52
-35.99
-37.23
-38.71
-40.84
-43.78
-47.32
-51.01
-54.29
-56.58
-57.37
-56.18
-52.55
-46.22
-37.28
-26.31
-14.33
-2.53
8.05
16.84
23.77
29.18
33.55
37.16
40.07
42.06
42.86
42.30
40.47
37.70
34.49
31.32
28.61
26.59
25.42
25.20
25.94
27.47
29.40
31.12
31.96
31.47
29.55
26.53
22.93
19.26
15.79
12.56
9.45
6.36
3.26
0.06
-3.45
-7.70
-13.12
-19.95
-27.99
-36.59
-44.73
-51.36
-55.61
-56.95
-55.25
-50.63
-43.54
-34.66
-24.85
-15.05
-6.15
1.19
6.61
10.12
11.99
12.68
12.64
12.33
12.01
11.82
11.77
11.77
11.70
11.53
11.29
11.07
10.97
10.99
11.06
11.03
10.77
10.23
9.40
8.32
6.93
5.12
2.67
-0.54
-4.51
-9.00
-13.65
-18.07
-22.02
-25.51
-28.83
-32.45
-36.86
-42.32
-48.70
-55.31
-61.04
-64.57
-64.73
-60.87
-53.09
-42.16
-29.29
-15.80
-2.88
8.62
18.21
25.67
31.02
34.42
36.11
36.43
35.70
34.27
32.43
30.48
28.66
27.17
26.15
25.60
25.46
25.57
25.77
25.88
25.75
25.25
24.31
22.84
20.79
18.11
14.77
10.86
6.51
1.96
-2.55
-6.86
-10.95
-14.97
-19.11
-23.64
-28.77
-34.60
-41.11
-47.96
-54.44
-59.44
-61.65
-59.93
-53.66
-43.10
-29.28
-13.80
1.68
15.77
27.61
36.81
43.36
47.41
49.22
49.08
47.40
44.67
41.42
38.21
35.45
33.36
31.97
31.10
30.56
30.17
29.87
29.72
29.75
29.90
29.88
29.22
27.43
24.19
19.51
13.78
7.64
1.78
-3.32
-7.56
-11.23
-14.95
-19.36
-25.00
-32.00
-39.97
-47.96
-54.60
-58.36
-57.91
-52.58
-42.50
-28.68
-12.71
3.59
18.64
31.36
41.15
47.90
51.67
52.73
51.43
48.32
44.06
39.34
34.75
30.61
27.00
23.83
21.00
18.50
16.48
15.06
14.30
14.11
14.18
14.04
13.20
11.23
7.91
3.31
-2.15
-7.86
-13.23
-17.94
-22.05
-26.05
-30.59
-36.28
-43.30
-51.26
-59.13
-65.40
-68.47
-67.04
-60.47
-49.06
-33.92
-16.78
0.50
16.31
29.55
39.72
46.73
50.78
52.22
51.47
49.07
45.61
41.73
37.93
34.55
31.59
28.94
26.43
24.00
21.76
19.91
18.59
17.72
17.03
16.04
14.28
11.40
7.32
2.27
-3.29
-8.83
-13.96
-18.59
-23.02
-27.79
-33.51
-40.53
-48.72
-57.30
-64.90
-69.91
-70.80
-66.67
-57.40
-43.84
-27.52
-10.28
6.09
20.26
31.38
39.18
43.74
45.44
44.86
42.69
39.70
36.59
33.90
31.86
30.45
29.39
28.41
27.28
25.91
24.42
22.92
21.58
20.39
19.23
17.83
15.84
12.95
8.98
4.05
-1.51
-7.18
-12.50
-17.21
-21.39
-25.49
-30.07
-35.62
-42.12
-48.93
-54.76
-57.98
-57.09
-51.25
-40.58
-26.21
-9.98
6.18
20.60
32.30
40.94
46.68
49.91
51.03
50.43
48.49
45.66
42.41
39.21
36.36
33.92
31.71
29.52
27.20
24.78
22.50
20.61
19.27
18.38
17.63
16.57
14.75
11.92
8.15
3.78
-0.67
-4.76
-8.26
-11.28
-14.12
-17.18
-20.82
-25.27
-30.61
-36.65
-42.89
-48.37
-51.88
-52.12
-48.26
-40.17
-28.59
-14.92
-0.78
12.41
23.70
32.67
39.33
43.87
46.54
47.57
47.10
45.38
42.73
39.60
36.53
34.00
32.27
31.27
30.70
30.15
29.31
28.10
26.61
25.02
23.44
21.84
20.00
17.71
14.74
11.06
6.73
1.95
-3.02
-7.92
-12.52
-16.70
-20.48
-24.00
-27.56
-31.53
-36.17
-41.53
-47.22
-52.40
-55.95
-56.65
-53.62
-46.60
-36.12
-23.30
-9.67
3.30
14.50
23.32
29.64
33.70
35.91
36.67
36.31
35.11
33.28
31.06
28.70
26.47
24.58
23.11
22.03
21.22
20.50
19.74
18.85
17.82
16.67
15.40
14.05
12.60
10.98
9.12
6.89
4.23
1.17
-2.18
-5.65
-9.10
-12.51
-15.93
-19.41
-22.99
-26.66
-30.42
-34.36
-38.55
-42.90
-46.89
-49.61
-49.87
-46.72
-39.80
-29.68
-17.64
-5.30
5.87
14.96
21.65
26.09
28.61
29.58
29.33
28.18
26.47
24.53
22.67
21.04
19.68
18.53
17.49
16.54
15.69
14.99
14.47
14.08
13.70
13.17
12.32
11.06
9.38
7.32
4.94
2.28
-0.64
-3.83
-7.33
-11.11
-15.10
-19.18
-23.18
-26.94
-30.42
-33.71
-37.11
-41.00
-45.70
-51.24
-57.18
-62.62
-66.42
-67.55
-65.39
-60.03
-52.17
-42.83
-33.05
-23.54
-14.64
-6.40
1.14
7.94
13.93
19.13
23.76
28.16
32.61
37.29
42.24
47.52
53.27
59.70
66.79
74.07
80.54
84.98
86.41
84.51
79.75
73.11
65.73
58.43
51.55
45.05
38.65
31.92
24.37
15.62
5.46
-5.87
-17.70
-29.05
-38.99
-46.96
-52.96
-57.54
-61.48
-65.52
-69.99
-74.70
-78.84
-81.24
-80.77
-76.67
-68.98
-58.44
-46.28
-33.76
-21.73
-10.48
0.16
10.55
21.02
31.67
42.26
52.22
60.71
66.83
69.83
69.47
66.13
60.84
54.97
49.87
46.60
45.73
47.32
50.93
55.66
60.26
63.36
63.73
60.67
54.23
45.17
34.87
24.89
16.64
11.00
8.04
6.92
6.02
3.45
-2.33
-11.76
-23.82
-36.11
-45.70
-50.09
-48.12
-40.29
-28.37
-14.64
-0.97
11.60
22.89
33.26
43.06
52.31
60.57
67.05
70.81
71.11
67.64
60.71
51.23
40.50
29.90
20.46
12.67
6.44
1.27
-3.56
-8.79
-14.96
-22.41
-31.21
-41.28
-52.36
-64.09
-76.10
-88.10
-100.06
-112.17
-124.73
-137.78
-150.69
-162.10
-170.21
-173.46
-171.20
-164.05
-153.58
-141.56
-129.16
-116.63
-103.54
-89.33
-73.94
-57.86
-42.01
-27.23
-14.06
-2.69
6.88
14.64
20.56
24.67
27.13
28.20
28.22
27.35
25.60
22.82
18.90
13.95
8.37
2.84
-2.00
-5.64
-8.04
-9.59
-11.07
-13.37
-17.17
-22.75
-29.64
-36.71
-42.30
-44.80
-43.22
-37.87
-30.46
-23.61
-19.97
-21.12
-26.97
-35.71
-44.43
-50.11
-50.43
-44.34
-32.14
-15.33
3.78
22.59
38.80
50.97
58.85
63.31
65.78
67.53
69.08
70.13
69.96
68.04
64.43
59.68
54.35
48.50
41.59
32.94
22.54
11.54
2.08
-3.59
-4.24
-0.41
5.73
11.36
14.20
13.31
9.15
2.86
-4.49
-12.32
-20.54
-29.07
-37.57
-45.40
-51.94
-56.93
-60.59
-63.23
-65.00
-65.51
-63.98
-59.63
-52.16
-42.05
-30.51
-19.09
-9.15
-1.43
4.10
8.20
11.90
16.12
21.29
27.21
33.10
37.75
39.93
38.76
34.27
27.59
20.85
16.63
17.07
23.21
34.56
49.25
64.43
76.98
84.10
83.95
76.11
61.68
42.93
22.64
3.05
-14.70
-30.74
-45.94
-61.06
-76.17
-90.45
-102.53
-111.01
-114.82
-113.36
-106.55
-94.85
-79.23
-61.17
-42.38
-24.35
-8.11
5.87
17.46
26.75
33.84
39.02
42.74
45.62
48.26
50.95
53.65
56.04
57.92
59.40
61.03
63.59
67.53
72.69
78.10
82.43
84.65
84.63
83.33
82.32
83.09
86.33
91.66
97.73
102.76
104.99
103.03
96.14
84.45
69.14
52.33
36.75
25.07
19.21
19.89
26.64
38.15
52.61
67.84
81.40
90.70
93.54
88.82
77.14
60.65
42.30
24.59
8.74
-5.47
-19.20
-33.39
-47.85
-60.89
-69.78
-71.89
-65.96
-52.91
-35.68
-18.22
-3.96
5.37
10.14
12.27
14.14
17.52
23.10
30.57
39.18
48.17
56.92
64.87
71.31
75.56
77.21
76.49
74.35
72.30
71.87
73.90
77.80
81.41
81.54
75.29
61.72
42.61
22.18
5.59
-2.90
-1.36
9.28
25.64
42.79
55.40
58.99
51.08
32.06
5.34
-23.62
-49.20
-67.58
-77.93
-82.07
-82.92
-82.78
-82.46
-81.64
-79.77
-76.97
-73.90
-71.11
-68.37
-64.46
-57.76
-47.20
-33.17
-17.59
-3.35
6.85
11.52
10.90
6.79
1.82
-1.58
-2.02
0.55
4.98
9.69
13.29
15.13
15.25
14.06
11.84
8.58
4.01
-2.05
-9.44
-17.63
-25.96
-34.02
-41.96
-50.43
-60.33
-72.41
-86.91
-103.42
-120.98
-138.36
-154.49
-168.81
-181.37
-192.79
-203.91
-215.36
-227.22
-238.88
-249.13
-256.44
-259.21
-256.22
-246.91
-231.75
-212.28
-190.98
-170.58
-153.26
-139.96
-130.13
-122.13
-114.00
-104.23
-92.24
-78.26
-62.92
-46.83
-30.44
-14.14
1.59
16.05
28.49
38.45
45.95
51.56
56.28
61.19
67.28
75.04
84.51
95.28
106.65
117.84
128.21
137.30
144.89
150.85
155.05
157.20
156.92
153.84
147.74
138.66
126.84
112.71
96.78
79.81
62.96
47.79
35.98
28.77
26.40
27.75
30.61
32.46
31.46
27.10
20.26
12.59
5.71
0.55
-2.92
-5.55
-8.55
-13.19
-20.35
-30.29
-42.53
-55.86
-68.65
-79.35
-86.95
-91.17
-92.45
-91.50
-88.98
-85.26
-80.36
-74.24
-66.98
-58.81
-50.16
-41.52
-33.38
-26.21
-20.54
-16.84
-15.35
-15.75
-17.07
-17.75
-16.09
-10.81
-1.56
10.86
24.89
38.65
50.59
59.89
66.39
70.49
72.73
73.57
73.24
71.77
69.16
65.49
61.07
56.37
51.94
48.12
44.99
42.34
39.79
37.07
34.04
30.82
27.60
24.54
21.67
18.95
16.29
13.65
11.03
8.42
5.83
3.23
0.55
-2.25
-5.17
-8.15
-11.14
-14.10
-17.07
-20.21
-23.79
-28.07
-33.14
-38.77
-44.26
-48.62
-50.77
-49.94
-45.88
-38.95
-29.92
-19.78
-9.46
0.33
9.05
16.37
22.10
26.21
28.83
30.27
30.83
30.76
30.23
29.31
28.06
26.56
24.97
23.45
22.10
20.96
19.94
18.89
17.62
15.99
13.96
11.52
8.75
5.74
2.57
-0.74
-4.18
-7.90
-12.05
-16.77
-22.00
-27.35
-32.07
-35.20
-35.79
-33.27
-27.64
-19.50
-9.83
0.23
9.74
18.00
24.63
29.50
32.66
34.29
34.66
34.10
32.90
31.30
29.45
27.47
25.46
23.52
21.76
20.24
18.95
17.77
16.58
15.21
13.57
11.61
9.34
6.77
3.94
0.90
-2.29
-5.61
-9.07
-12.77
-16.91
-21.61
-26.82
-32.07
-36.52
-39.08
-38.77
-35.07
-28.18
-19.00
-8.82
1.07
9.70
16.64
21.88
25.62
28.05
29.28
29.38
28.43
26.65
24.35
21.84
19.37
17.11
15.14
13.51
12.23
11.27
10.52
9.80
8.91
7.70
6.15
4.29
2.19
-0.14
-2.71
-5.63
-9.02
-13.00
-17.66
-22.91
-28.38
-33.40
-37.10
-38.54
-37.07
-32.52
-25.33
-16.35
-6.67
2.70
11.02
17.89
23.22
27.10
29.69
31.13
31.54
31.04
29.77
27.94
25.75
23.41
21.07
18.83
16.74
14.84
13.13
11.60
10.17
8.69
7.03
5.05
2.71
0.02
-2.93
-6.10
-9.50
-13.25
-17.52
-22.40
-27.75
-33.05
-37.46
-39.97
-39.73
-36.31
-29.93
-21.35
-11.69
-2.09
6.56
13.77
19.37
23.46
26.21
27.83
28.46
28.28
27.43
26.08
24.40
22.54
20.71
19.06
17.76
16.86
16.31
15.92
15.40
14.40
12.69
10.12
6.73
2.59
-2.20
-7.62
-13.77
-20.85
-29.11
-38.60
-48.99
-59.41
-68.43
-74.38
-75.72
-71.57
-61.97
-47.91
-31.07
-13.36
3.50
18.36
30.65
40.24
47.24
51.76
53.89
53.75
51.71
48.45
44.97
42.33
41.47
43.01
47.07
53.31
60.85
68.33
74.05
76.25
73.62
65.85
53.83
39.54
25.42
13.51
4.79
-1.20
-6.04
-11.85
-20.47
-32.94
-49.20
-68.13
-87.80
-105.79
-119.52
-126.69
-125.71
-116.20
-99.21
-77.19
-53.37
-31.01
-12.59
0.75
9.18
13.76
15.82
16.48
16.39
15.86
15.02
13.99
12.99
12.20
11.72
11.47
11.25
10.85
10.14
9.14
7.94
6.62
5.09
3.19
0.68
-2.53
-6.39
-10.75
-15.49
-20.61
-26.14
-32.01
-37.71
-42.29
-44.51
-43.25
-37.93
-28.84
-17.06
-4.18
8.24
18.99
27.46
33.61
37.74
40.24
41.42
41.46
40.49
38.61
36.05
33.08
30.00
27.05
24.37
22.01
19.90
17.94
16.01
13.98
11.71
9.16
6.33
3.31
0.18
-2.99
-6.17
-9.43
-12.87
-16.65
-20.92
-25.73
-30.95
-36.07
-40.20
-42.21
-41.03
-36.01
-27.30
-15.78
-2.86
9.93
21.40
30.88
38.19
43.40
46.69
48.17
47.92
46.11
43.04
39.18
35.07
31.21
28.00
25.58
23.92
22.74
21.71
20.47
18.78
16.54
13.80
10.70
7.37
3.93
0.41
-3.24
-7.15
-11.51
-16.56
-22.46
-29.11
-36.01
-42.17
-46.30
-47.10
-43.73
-36.13
-25.12
-12.15
1.11
13.22
23.28
31.05
36.68
40.54
42.89
43.79
43.15
40.92
37.20
32.37
26.98
21.67
16.93
13.07
10.12
7.96
6.37
5.07
3.83
2.42
0.69
-1.44
-4.00
-6.93
-10.18
-13.70
-17.47
-21.57
-26.08
-31.08
-36.41
-41.62
-45.86
-47.99
-46.92
-41.91
-32.93
-20.73
-6.72
7.48
20.42
31.08
39.07
44.46
47.66
49.24
49.82
50.02
50.31
50.95
51.90
52.86
53.51
53.71
53.75
54.30
56.22
60.22
66.55
74.79
83.84
92.03
97.41
98.27
93.68
83.84
70.09
54.40
38.60
23.70
9.56
-4.75
-20.24
-37.20
-54.70
-70.75
-83.02
-89.77
-90.65
-86.81
-80.58
-74.54
-70.69
-69.87
-71.81
-75.43
-79.52
-83.08
-85.46
-86.10
-84.48
-80.11
-72.64
-62.25
-49.62
-36.05
-23.00
-11.78
-3.21
2.59
6.05
7.87
8.67
8.72
8.01
6.35
3.69
0.24
-3.51
-7.06
-10.03
-12.36
-14.30
-16.27
-18.77
-22.11
-26.35
-31.05
-35.41
-38.24
-38.42
-35.25
-28.76
-19.69
-9.25
1.25
10.86
19.04
25.68
30.79
34.37
36.32
36.60
35.32
32.80
29.59
26.20
23.00
20.17
17.65
15.37
13.24
11.27
9.50
7.93
6.47
4.96
3.27
1.31
-0.83
-3.02
-5.11
-7.04
-8.87
-10.86
-13.36
-16.75
-21.29
-26.84
-32.81
-38.10
-41.41
-41.57
-37.97
-30.80
-20.90
-9.51
2.20
13.32
23.30
31.79
38.41
42.79
44.63
43.93
41.10
36.98
32.58
28.85
26.44
25.75
26.90
29.88
34.48
40.19
46.25
51.76
56.13
59.39
62.21
65.41
69.21
72.77
74.36
72.10
65.01
53.45
39.05
23.77
9.10
-4.40
-16.74
-27.83
-37.01
-43.08
-44.99
-42.56
-36.90
-30.13
-24.62
-22.02
-22.77
-25.97
-29.89
-32.71
-33.20
-31.03
-26.77
-21.44
-16.08
-11.41
-7.74
-5.10
-3.44
-2.81
-3.30
-4.93
-7.55
-10.79
-14.19
-17.30
-19.88
-21.89
-23.50
-24.98
-26.70
-29.01
-32.21
-36.43
-41.49
-46.79
-51.28
-53.75
-53.13
-48.86
-41.13
-30.77
-19.02
-7.15
3.78
13.13
20.59
26.09
29.71
31.54
31.76
30.56
28.25
25.15
21.64
18.04
14.66
11.68
9.21
7.22
5.62
4.23
2.82
1.25
-0.61
-2.75
-5.09
-7.52
-9.96
-12.48
-15.23
-18.49
-22.53
-27.51
-33.28
-39.24
-44.39
-47.47
-47.28
-43.08
-34.83
-23.33
-9.94
3.72
16.19
26.40
33.87
38.57
40.84
41.15
39.93
37.57
34.34
30.54
26.47
22.52
19.01
16.19
14.04
12.36
10.83
9.14
7.15
4.86
2.38
-0.15
-2.72
-5.41
-8.39
-11.84
-15.94
-20.80
-26.42
-32.62
-38.87
-44.28
-47.69
-47.93
-44.25
-36.59
-25.67
-12.79
0.58
13.13
23.95
32.56
38.76
42.53
43.99
43.38
41.10
37.66
33.62
29.45
25.48
21.89
18.74
15.93
13.30
10.62
7.71
4.54
1.22
-2.03
-4.99
-7.57
-9.89
-12.17
-14.71
-17.79
-21.60
-26.25
-31.60
-37.21
-42.21
-45.44
-45.73
-42.26
-34.87
-24.13
-11.22
2.45
15.55
27.08
36.42
43.29
47.57
49.31
48.64
45.79
41.15
35.31
28.92
22.70
17.19
12.69
9.21
6.52
4.29
2.27
0.23
-1.88
-4.18
-6.70
-9.48
-12.58
-15.95
-19.62
-23.64
-28.18
-33.37
-39.14
-45.02
-50.04
-52.95
-52.47
-47.85
-39.04
-26.81
-12.59
1.99
15.49
26.93
35.81
42.09
45.85
47.27
46.50
43.80
39.56
34.33
28.82
23.68
19.35
15.96
13.32
11.06
8.77
6.17
3.23
0.09
-3.00
-5.86
-8.44
-10.91
-13.62
-16.95
-21.26
-26.71
-33.17
-40.11
-46.58
-51.30
-52.93
-50.40
-43.36
-32.28
-18.39
-3.42
10.99
23.53
33.48
40.59
44.93
46.72
46.18
43.67
39.62
34.64
29.40
24.52
20.36
17.02
14.30
11.80
9.17
6.15
2.75
-0.84
-4.33
-7.48
-10.17
-12.44
-14.57
-16.93
-19.99
-24.09
-29.36
-35.44
-41.48
-46.16
-48.02
-45.87
-39.17
-28.31
-14.48
0.59
15.09
27.61
37.30
43.93
47.63
48.79
47.79
45.07
41.07
36.30
31.36
26.76
22.85
19.70
17.12
14.74
12.17
9.16
5.67
1.88
-1.94
-5.58
-8.95
-12.13
-15.28
-18.61
-22.29
-26.50
-31.28
-36.50
-41.72
-46.10
-48.51
-47.82
-43.26
-34.70
-22.77
-8.75
5.74
19.14
30.28
38.50
43.65
45.98
45.96
44.10
40.85
36.60
31.73
26.64
21.77
17.51
14.00
11.14
8.57
5.88
2.77
-0.76
-4.43
-7.83
-10.58
-12.52
-13.78
-14.74
-15.90
-17.85
-21.02
-25.60
-31.32
-37.39
-42.58
-45.47
-44.84
-40.04
-31.23
-19.38
-5.98
7.33
19.15
28.56
35.21
39.14
40.69
40.24
38.16
34.77
30.42
25.51
20.48
15.80
11.80
8.63
6.24
4.34
2.60
0.78
-1.27
-3.52
-5.90
-8.31
-10.76
-13.33
-16.22
-19.64
-23.87
-29.05
-35.06
-41.34
-46.85
-50.21
-50.13
-45.83
-37.31
-25.46
-11.71
2.33
15.30
26.28
34.76
40.57
43.70
44.29
42.64
39.25
34.73
29.76
24.90
20.50
16.67
13.34
10.35
7.52
4.69
1.78
-1.23
-4.31
-7.35
-10.27
-13.07
-15.85
-18.84
-22.36
-26.65
-31.80
-37.56
-43.32
-48.10
-50.71
-50.06
-45.47
-36.96
-25.27
-11.69
2.22
15.13
26.07
34.52
40.33
43.48
44.10
42.40
38.82
33.97
28.65
23.58
19.23
15.79
13.04
10.63
8.10
5.20
1.85
-1.79
-5.38
-8.61
-11.22
-13.22
-14.86
-16.61
-19.03
-22.61
-27.57
-33.67
-40.14
-45.72
-48.90
-48.32
-43.20
-33.67
-20.82
-6.44
7.54
19.53
28.71
34.97
38.63
40.20
39.99
38.21
35.05
30.84
26.10
21.45
17.41
14.23
11.81
9.79
7.72
5.28
2.39
-0.79
-3.95
-6.81
-9.27
-11.46
-13.70
-16.38
-19.86
-24.37
-29.89
-36.11
-42.34
-47.49
-50.28
-49.50
-44.39
-34.97
-22.11
-7.34
7.59
21.11
32.14
40.18
45.17
47.31
46.87
44.19
39.70
33.99
27.83
21.99
17.13
13.51
11.02
9.20
7.50
5.47
2.90
-0.09
-3.25
-6.23
-8.87
-11.20
-13.44
-15.95
-19.08
-23.08
-28.03
-33.79
-39.84
-45.31
-48.96
-49.49
-45.86
-37.69
-25.51
-10.68
4.90
19.37
31.32
40.05
45.43
47.76
47.50
45.11
41.05
35.84
30.05
24.25
18.96
14.52
11.04
8.39
6.31
4.51
2.68
0.62
-1.80
-4.57
-7.59
-10.65
-13.56
-16.21
-18.71
-21.38
-24.66
-28.96
-34.39
-40.53
-46.38
-50.52
-51.46
-48.12
-40.17
-28.18
-13.53
1.98
16.54
28.74
37.80
43.53
46.20
46.30
44.31
40.69
35.87
30.33
24.67
19.47
15.21
12.12
10.01
8.46
6.90
4.94
2.39
-0.61
-3.83
-7.01
-10.05
-12.96
-15.90
-19.05
-22.62
-26.84
-31.90
-37.79
-44.13
-50.06
-54.22
-55.13
-51.57
-43.13
-30.35
-14.72
1.78
17.17
29.93
39.22
44.89
47.26
46.90
44.39
40.27
35.07
29.35
23.73
18.76
14.90
12.19
10.44
9.14
7.78
5.95
3.50
0.56
-2.60
-5.68
-8.54
-11.18
-13.85
-16.91
-20.78
-25.79
-32.06
-39.35
-46.94
-53.63
-57.92
-58.37
-54.02
-44.72
-31.37
-15.60
0.61
15.50
27.86
37.12
43.23
46.39
46.90
45.12
41.56
36.82
31.64
26.72
22.50
19.20
16.67
14.60
12.61
10.39
7.77
4.76
1.51
-1.82
-5.10
-8.32
-11.57
-15.00
-18.75
-22.98
-27.90
-33.71
-40.51
-47.97
-55.18
-60.62
-62.46
-59.14
-50.01
-35.66
-17.86
0.93
18.30
32.44
42.54
48.67
51.48
51.77
50.22
47.32
43.42
38.87
34.10
29.56
25.65
22.49
19.97
17.77
15.59
13.16
10.44
7.50
4.41
1.23
-2.06
-5.47
-9.08
-12.93
-17.14
-21.90
-27.48
-34.10
-41.76
-49.98
-57.69
-63.32
-65.06
-61.49
-52.05
-37.35
-19.16
0.13
18.10
32.94
43.72
50.39
53.45
53.67
51.79
48.43
44.13
39.37
34.55
30.03
26.09
22.86
20.38
18.61
17.34
16.32
15.21
13.67
11.50
8.62
5.11
1.18
-3.00
-7.30
-11.70
-16.23
-21.06
-26.44
-32.61
-39.59
-46.90
-53.42
-57.51
-57.42
-52.01
-41.27
-26.45
-9.74
6.50
20.45
31.16
38.54
43.02
45.11
45.22
43.71
40.94
37.43
33.74
30.29
27.28
24.59
22.01
19.37
16.76
14.47
12.74
11.64
10.84
9.71
7.67
4.37
-0.08
-5.16
-10.20
-14.70
-18.55
-22.07
-25.88
-30.61
-36.62
-43.77
-51.27
-57.70
-61.29
-60.36
-53.89
-41.95
-25.75
-7.43
10.62
26.33
38.46
46.64
51.19
52.77
52.11
49.83
46.47
42.49
38.35
34.42
30.95
28.00
25.49
23.30
21.33
19.60
18.15
17.00
15.96
14.69
12.76
9.80
5.74
0.83
-4.48
-9.65
-14.34
-18.48
-22.28
-26.18
-30.66
-36.11
-42.50
-49.25
-55.07
-58.24
-57.05
-50.49
-38.69
-23.00
-5.60
11.21
25.58
36.50
43.80
47.80
49.05
48.10
45.48
41.76
37.52
33.30
29.48
26.24
23.56
21.27
19.19
17.21
15.30
13.53
11.94
10.45
8.84
6.74
3.83
-0.07
-4.78
-9.89
-14.84
-19.15
-22.67
-25.61
-28.56
-32.19
-37.01
-43.01
-49.56
-55.35
-58.70
-58.08
-52.58
-42.29
-28.31
-12.44
3.33
17.33
28.49
36.38
41.10
43.00
42.57
40.35
36.91
32.84
28.69
24.93
21.79
19.32
17.39
15.81
14.45
13.23
12.12
11.01
9.70
7.91
5.40
2.10
-1.84
-6.10
-10.31
-14.21
-17.72
-21.03
-24.43
-28.29
-32.86
-38.06
-43.38
-47.81
-50.03
-48.77
-43.30
-33.70
-20.94
-6.60
7.57
20.06
29.91
36.74
40.65
41.99
41.25
38.96
35.63
31.73
27.65
23.71
20.10
16.95
14.37
12.42
11.10
10.27
9.67
8.91
7.58
5.44
2.44
-1.27
-5.39
-9.63
-13.80
-17.82
-21.67
-25.51
-29.53
-34.05
-39.25
-45.01
-50.69
-55.03
-56.45
-53.55
-45.64
-33.15
-17.61
-1.21
13.82
25.85
34.12
38.72
40.31
39.76
37.89
35.32
32.50
29.69
27.03
24.53
22.13
19.79
17.45
15.17
13.04
11.19
9.68
8.42
7.19
5.64
3.43
0.36
-3.52
-7.90
-12.25
-16.12
-19.26
-21.81
-24.33
-27.51
-31.97
-37.79
-44.31
-50.18
-53.63
-53.05
-47.53
-37.29
-23.55
-8.17
6.94
20.24
30.84
38.41
42.93
44.63
43.84
41.13
37.20
32.86
28.76
25.32
22.60
20.34
18.25
16.08
13.82
11.65
9.81
8.44
7.40
6.35
4.78
2.34
-1.08
-5.24
-9.67
-13.85
-17.44
-20.40
-22.97
-25.65
-28.92
-33.14
-38.22
-43.58
-48.11
-50.37
-49.06
-43.42
-33.62
-20.71
-6.35
7.65
19.86
29.38
35.92
39.58
40.71
39.74
37.21
33.76
30.05
26.66
23.89
21.76
19.98
18.24
16.36
14.41
12.65
11.35
10.59
10.20
9.78
8.85
7.03
4.14
0.26
-4.32
-9.18
-13.86
-17.99
-21.42
-24.23
-26.82
-29.75
-33.48
-38.13
-43.22
-47.69
-50.11
-49.14
-44.00
-34.83
-22.61
-8.93
4.55
16.52
26.18
33.22
37.61
39.47
38.96
36.42
32.40
27.63
22.91
18.86
15.80
13.64
12.07
10.71
9.38
8.12
7.12
6.54
6.31
6.10
5.44
3.86
1.18
-2.47
-6.64
-10.79
-14.53
-17.69
-20.38
-22.90
-25.59
-28.74
-32.52
-36.85
-41.41
-45.42
-47.85
-47.58
-43.73
-36.10
-25.26
-12.54
0.40
11.99
21.19
27.57
31.24
32.58
32.00
29.88
26.58
22.56
18.41
14.74
11.99
10.27
9.42
9.05
8.82
8.49
8.06
7.60
7.10
6.41
5.24
3.33
0.55
-2.94
-6.80
-10.68
-14.32
-17.72
-21.03
-24.56
-28.53
-33.08
-38.10
-43.09
-47.16
-49.17
-47.97
-42.85
-33.84
-21.85
-8.44
4.64
15.92
24.60
30.54
34.02
35.47
35.32
33.88
31.48
28.49
25.36
22.45
19.93
17.76
15.72
13.59
11.35
9.18
7.35
6.03
5.09
4.20
2.87
0.77
-2.16
-5.65
-9.25
-12.55
-15.33
-17.67
-19.93
-22.64
-26.27
-31.07
-36.80
-42.67
-47.44
-49.65
-48.08
-42.16
-32.19
-19.28
-5.10
8.62
20.44
29.51
35.57
38.77
39.49
38.20
35.40
31.61
27.37
23.16
19.36
16.14
13.51
11.39
9.71
8.43
7.52
6.93
6.45
5.78
4.60
2.65
-0.10
-3.52
-7.30
-11.08
-14.58
-17.68
-20.50
-23.38
-26.74
-30.99
-36.18
-41.94
-47.32
-51.01
-51.69
-48.43
-41.07
-30.32
-17.55
-4.38
7.76
17.93
25.72
31.08
34.19
35.27
34.60
32.62
29.84
26.82
24.00
21.58
19.52
17.61
15.71
13.79
11.96
10.42
9.25
8.36
7.44
6.12
4.11
1.30
-2.15
-5.97
-9.82
-13.44
-16.68
-19.58
-22.33
-25.36
-29.19
-34.18
-40.29
-46.75
-52.12
-54.62
-52.72
-45.76
-34.28
-19.86
-4.58
9.65
21.56
30.63
36.88
40.52
41.78
40.84
38.06
33.99
29.48
25.30
22.03
19.82
18.44
17.46
16.54
15.55
14.59
13.83
13.31
12.82
11.96
10.26
7.44
3.53
-1.12
-5.96
-10.45
-14.31
-17.51
-20.36
-23.35
-26.97
-31.59
-37.18
-43.27
-48.77
-52.24
-52.23
-47.80
-38.90
-26.41
-11.93
2.72
16.03
27.04
35.37
40.98
44.05
44.80
43.59
40.90
37.32
33.46
29.81
26.62
23.94
21.67
19.62
17.70
15.85
14.21
12.88
11.90
11.15
10.30
8.92
6.67
3.45
-0.55
-4.92
-9.17
-12.98
-16.28
-19.25
-22.28
-25.81
-30.20
-35.59
-41.68
-47.66
-52.20
-53.78
-51.11
-43.62
-31.81
-17.12
-1.58
12.84
24.74
33.47
39.05
41.84
42.26
40.69
37.54
33.37
28.90
24.78
21.48
19.03
17.12
15.32
13.39
11.36
9.49
8.10
7.21
6.57
5.72
4.17
1.67
-1.74
-5.75
-9.97
-14.02
-17.67
-20.84
-23.64
-26.38
-29.56
-33.63
-38.77
-44.59
-50.04
-53.57
-53.61
-49.10
-39.95
-27.03
-12.01
3.19
16.82
27.73
35.42
39.95
41.77
41.45
39.58
36.65
33.09
29.32
25.71
22.55
19.97
17.95
16.32
14.90
13.56
12.28
11.05
9.80
8.34
6.45
3.90
0.61
-3.32
-7.67
-12.11
-16.33
-20.17
-23.69
-27.19
-31.16
-36.06
-42.03
-48.60
-54.63
-58.49
-58.54
-53.72
-43.94
-30.22
-14.32
1.73
16.13
27.69
35.89
40.77
42.72
42.32
40.22
37.10
33.57
30.09
26.99
24.37
22.21
20.41
18.90
17.65
16.67
15.95
15.40
14.79
13.80
12.05
9.25
5.33
0.47
-4.91
-10.28
-15.20
-19.45
-23.19
-26.86
-31.08
-36.38
-42.87
-50.07
-56.84
-61.58
-62.62
-58.79
-49.81
-36.45
-20.37
-3.63
11.87
24.81
34.56
41.10
44.70
45.78
44.77
42.15
38.51
34.50
30.75
27.63
25.26
23.47
22.02
20.69
19.42
18.30
17.35
16.49
15.44
13.82
11.29
7.70
3.22
-1.80
-6.85
-11.48
-15.49
-18.92
-22.15
-25.70
-30.17
-35.91
-42.82
-50.19
-56.66
-60.55
-60.28
-54.88
-44.41
-29.94
-13.33
3.33
18.26
30.31
39.03
44.50
47.04
47.10
45.14
41.74
37.54
33.29
29.63
26.93
25.22
24.17
23.31
22.21
20.69
18.89
17.11
15.67
14.59
13.61
12.20
9.84
6.24
1.51
-3.91
-9.40
-14.42
-18.65
-22.16
-25.24
-28.43
-32.28
-37.18
-43.15
-49.64
-55.44
-58.95
-58.56
-53.24
-42.96
-28.76
-12.47
3.84
18.46
30.33
39.13
45.01
48.32
49.37
48.47
45.96
42.31
38.16
34.22
31.04
28.85
27.49
26.58
25.61
24.28
22.55
20.66
18.89
17.43
16.13
14.63
12.44
9.25
5.03
0.09
-5.05
-9.92
-14.23
-17.94
-21.31
-24.71
-28.64
-33.50
-39.45
-46.26
-53.12
-58.72
-61.47
-59.97
-53.50
-42.32
-27.72
-11.57
4.17
18.01
29.10
37.18
42.31
44.69
44.54
42.24
38.39
33.83
29.47
25.98
23.64
22.26
21.39
20.55
19.49
18.18
16.76
15.40
14.12
12.86
11.37
9.44
6.87
3.60
-0.32
-4.68
-9.17
-13.44
-17.26
-20.59
-23.64
-26.86
-30.75
-35.66
-41.54
-47.74
-53.10
-56.09
-55.32
-49.99
-40.15
-26.81
-11.63
3.56
17.20
28.28
36.37
41.47
43.80
43.76
41.82
38.57
34.65
30.65
27.01
23.94
21.40
19.26
17.33
15.57
13.99
12.72
11.83
11.24
10.73
9.88
8.26
5.61
1.92
-2.48
-7.06
-11.30
-14.93
-17.96
-20.75
-23.82
-27.67
-32.61
-38.56
-44.96
-50.79
-54.68
-55.27
-51.58
-43.38
-31.35
-16.93
-1.90
12.06
23.77
32.65
38.62
41.88
42.74
41.59
38.91
35.27
31.29
27.51
24.29
21.70
19.62
17.83
16.13
14.46
12.85
11.43
10.27
9.31
8.34
7.05
5.08
2.22
-1.52
-5.87
-10.41
-14.68
-18.38
-21.47
-24.19
-26.99
-30.41
-34.84
-40.27
-46.18
-51.48
-54.79
-54.72
-50.40
-41.77
-29.65
-15.53
-1.16
11.96
22.85
31.12
36.79
40.06
41.12
40.19
37.60
33.94
29.92
26.29
23.47
21.50
20.05
18.71
17.18
15.44
13.70
12.24
11.17
10.37
9.52
8.19
6.02
2.86
-1.18
-5.73
-10.29
-14.42
-17.93
-20.95
-23.89
-27.24
-31.40
-36.48
-42.27
-48.17
-53.30
-56.56
-56.85
-53.38
-45.88
-34.77
-21.15
-6.46
7.80
20.45
30.75
38.33
43.04
44.96
44.32
41.63
37.64
33.27
29.44
26.76
25.37
24.86
24.55
23.86
22.61
21.06
19.81
19.40
20.12
21.84
24.02
26.13
27.90
29.24
30.18
30.74
31.05
31.45
32.38
33.83
35.25
35.35
32.14
23.66
8.84
-11.59
-35.03
-57.57
-75.59
-86.53
-89.62
-85.90
-77.67
-67.53
-57.44
-48.65
-39.57
-29.87
-20.60
-13.86
-11.35
-13.01
-17.10
-21.04
-23.16
-23.43
-23.83
-26.83
-33.94
-44.78
-57.19
-69.49
-79.05
-84.30
-85.04
-82.27
-77.16
-70.47
-62.48
-53.34
-43.56
-33.97
-25.77
-19.98
-17.05
-16.53
-17.09
-17.35
-16.36
-14.10
-11.30
-9.12
-8.15
-7.93
-6.85
-2.89
5.27
17.57
32.40
47.52
60.83
71.27
78.95
84.73
89.49
93.64
97.02
99.24
100.15
100.01
99.49
99.45
100.56
102.95
106.13
109.00
110.25
108.80
104.23
96.83
87.40
76.70
65.05
52.23
37.83
21.80
4.98
-10.98
-24.19
-33.20
-37.63
-38.18
-36.28
-33.32
-30.12
-26.78
-22.86
-17.90
-11.79
-5.01
1.50
6.59
9.24
8.77
4.97
-1.93
-11.30
-22.27
-33.94
-45.53
-56.59
-66.99
-76.83
-86.19
-95.09
-103.43
-111.12
-118.27
-125.21
-132.33
-139.85
-147.65
-155.32
-162.33
-168.39
-173.64
-178.61
-183.93
-189.95
-196.36
-202.26
-206.42
-207.73
-205.62
-200.23
-192.20
-182.30
-171.13
-158.90
-145.42
-130.34
-113.27
-93.89
-71.97
-47.50
-20.80
7.34
35.74
63.30
89.29
113.73
137.04
159.59
181.10
200.60
216.89
229.23
237.85
243.80
248.24
251.76
254.08
254.66
253.54
251.91
251.87
255.36
262.93
273.22
283.35
290.24
292.04
288.84
282.34
274.59
266.76
258.53
248.47
235.20
218.34
199.05
179.37
161.20
145.40
131.44
117.92
103.48
87.59
70.81
54.32
39.21
25.82
13.48
0.82
-13.58
-30.56
-50.00
-70.91
-91.75
-111.08
-127.93
-141.98
-153.33
-162.18
-168.49
-171.87
-171.66
-167.33
-158.83
-146.84
-132.76
-118.48
-105.83
-96.03
-89.40
-85.41
-83.10
-81.74
-81.12
-81.58
-83.60
-87.40
-92.73
-99.11
-106.21
-114.07
-122.96
-132.84
-142.80
-150.98
-155.16
-153.55
-145.66
-132.50
-116.23
-99.49
-84.34
-71.79
-61.73
-53.40
-45.90
-38.73
-31.85
-25.75
-21.38
-19.62
-20.91
-25.15
-31.79
-40.03
-49.02
-58.10
-66.82
-75.46
-84.12
-92.55
-100.16
-106.36
-110.88
-113.74
-115.10
-114.70
-112.31
-106.88
-96.77
-80.59
-57.86
-29.31
3.58
39.23
76.87
115.43
152.06
182.76
204.14
214.85
215.48
207.64
193.31
178.71
165.05
152.88
142.86
135.33
130.02
126.10
122.67
116.95
108.23
96.26
82.15
67.63
54.30
43.13
34.36
27.63
22.24
17.62
12.40
5.58
-3.22
-13.57
-24.24
-33.61
-40.24
-43.62
-44.03
-43.06
-42.38
-43.27
-46.44
-51.95
-59.21
-66.90
-72.98
-74.77
-70.29
-58.73
-41.22
-20.41
0.45
18.89
33.87
45.58
54.49
60.15
61.01
55.07
41.23
20.41
-4.36
-28.62
-47.91
-59.02
-60.71
-53.72
-40.21
-23.06
-5.23
10.64
22.65
29.96
32.85
32.52
30.71
29.09
28.85
30.51
33.64
37.23
39.95
40.49
37.87
31.72
22.62
12.04
2.10
-5.60
-9.87
-10.00
-5.76
2.74
15.02
30.52
48.50
68.03
86.40
100.45
107.35
105.72
96.11
80.84
63.40
47.32
35.12
25.70
16.40
4.49
-11.35
-31.16
-54.38
-80.51
-109.11
-139.58
-173.07
-209.84
-248.62
-286.60
-321.02
-350.11
-373.15
-389.86
-384.88
-347.35
-275.37
-179.14
-75.51
20.23
99.46
159.93
202.94
231.35
245.95
247.60
237.99
220.34
198.41
174.21
148.66
121.78
92.83
58.55
15.92
-36.00
-89.17
-134.04
-160.94
-163.45
-141.51
-101.76
-56.10
-15.74
13.21
30.96
40.60
44.48
41.79
28.64
2.73
-35.08
-79.55
-123.26
-159.98
-187.07
-205.16
-215.92
-220.02
-216.09
-202.44
-179.01
-148.92
-117.75
-90.45
-69.88
-56.34
-48.52
-44.64
-43.09
-42.21
-40.49
-36.46
-27.00
-9.73
15.33
45.42
76.28
104.18
127.63
147.54
166.51
190.86
226.91
278.71
346.01
424.00
504.18
576.73
632.61
648.64
611.91
525.56
409.45
289.79
185.96
104.77
43.98
-1.84
-37.10
-61.37
-73.47
-74.26
-67.84
-59.79
-54.78
-54.26
-57.27
-61.93
-65.01
-64.78
-61.89
-59.14
-59.40
-65.77
-78.89
-97.48
-119.74
-143.02
-165.30
-186.08
-206.62
-226.71
-248.56
-272.40
-295.09
-310.36
-310.70
-290.91
-251.35
-198.93
-144.42
-98.31
-65.74
-45.87
-32.88
-21.79
-11.27
-3.82
-2.91
-9.76
-22.34
-36.20
-47.48
-55.57
-62.79
-71.28
-80.65
-87.22
-86.12
-75.04
-55.80
-33.26
-13.24
0.77
9.42
16.44
25.94
40.01
57.68
72.18
77.72
70.17
48.54
15.47
-23.68
-62.47
-95.41
-119.18
-132.84
-136.68
-131.91
-120.02
-102.77
-82.55
-62.38
-45.30
-33.18
-25.72
-19.75
-10.80
5.21
29.86
61.29
95.01
125.56
149.02
164.67
175.22
185.32
199.74
221.62
251.44
286.45
320.61
345.30
351.24
331.88
286.62
222.43
152.18
89.83
44.83
18.72
6.06
-1.01
-7.71
-14.01
-16.11
-10.42
2.94
19.74
34.20
42.32
43.53
39.82
33.83
27.34
21.71
19.23
23.19
36.05
56.97
80.83
100.50
111.07
113.13
112.28
114.94
122.70
129.50
124.26
97.62
49.13
-10.44
-63.31
-93.18
-93.17
-68.92
-35.23
-8.53
0.29
-10.66
-35.45
-64.61
-89.66
-105.96
-112.95
-112.54
-106.97
-97.85
-86.14
-73.11
-61.29
-54.57
-57.37
-72.63
-99.73
-133.37
-164.57
-183.66
-184.19
-165.86
-134.68
-100.32
-71.87
-54.27
-47.22
-46.61
-46.98
-43.42
-32.39
-11.60
19.76
60.05
104.10
143.18
167.02
167.72
143.07
97.84
41.88
-13.80
-60.34
-92.22
-106.19
-99.82
-71.60
-23.13
38.50
100.38
146.81
164.91
149.69
105.89
45.72
-16.24
-68.28
-104.50
-124.80
-132.99
-134.45
-134.16
-135.37
-138.70
-141.98
-141.15
-132.20
-113.51
-87.43
-59.66
-37.10
-24.95
-24.71
-34.23
-49.21
-65.39
-80.16
-92.75
-103.64
-113.59
-123.15
-132.61
-142.25
-152.31
-162.70
-172.63
-180.57
-184.67
-183.60
-177.30
-167.38
-156.48
-147.25
-141.07
-137.21
-132.89
-124.10
-107.17
-80.26
-44.46
-3.86
35.45
67.24
87.11
93.83
89.53
78.52
65.59
54.48
47.24
44.52
46.45
53.28
65.46
83.13
105.34
129.94
153.97
174.59
189.94
199.55
204.15
205.05
203.51
200.33
195.78
189.90
182.88
175.28
167.98
161.79
157.06
153.43
149.89
145.23
138.68
130.29
120.89
111.43
102.38
93.27
82.96
70.40
55.30
38.36
21.01
4.91
-8.47
-18.05
-23.22
-23.89
-20.64
-14.71
-7.77
-1.39
3.59
7.50
11.55
17.27
25.60
36.62
49.51
63.09
76.30
88.50
99.41
108.85
116.75
123.27
129.10
135.35
143.26
153.66
166.56
180.71
193.81
203.34
207.19
204.48
195.20
179.77
158.48
132.01
102.23
73.03
50.40
40.37
46.63
67.61
96.25
122.25
136.35
133.78
115.45
86.86
54.59
23.89
-3.31
-27.41
-49.53
-69.11
-84.10
-91.95
-90.50
-83.62
-75.38
-69.74
-69.09
-74.08
-82.84
-91.24
-97.78
-101.51
-102.90
-103.79
-107.84
-118.97
-140.87
-174.41
-219.34
-273.49
-332.04
-388.21
-433.91
-462.13
-468.82
-455.14
-424.44
-383.15
-337.39
-290.57
-243.10
-192.98
-138.07
-73.14
-8.08
52.98
103.23
136.50
149.44
142.43
119.28
85.23
44.42
-2.51
-55.55
-115.94
-182.28
-248.84
-306.64
-346.67
-363.79
-358.97
-339.27
-312.72
-286.63
-264.17
-244.09
-222.96
-197.97
-168.84
-137.77
-108.11
-81.01
-55.66
-29.19
1.67
38.71
81.13
125.64
167.92
204.06
232.73
254.83
273.22
291.40
312.42
338.14
369.06
404.19
440.83
474.79
500.74
513.54
510.00
490.07
456.86
415.47
370.89
326.70
284.72
245.85
211.17
182.12
159.95
144.80
135.18
128.47
121.97
113.69
102.51
87.52
67.72
42.11
10.67
-25.13
-62.22
-96.91
-126.09
-148.08
-162.73
-170.82
-173.30
-172.27
-168.74
-162.91
-154.99
-145.85
-136.43
-127.14
-117.89
-108.79
-100.43
-96.35
-101.38
-119.62
-152.14
-195.33
-241.16
-279.22
-300.20
-295.64
-264.70
-214.75
-159.22
-113.11
-87.83
-87.50
-108.35
-140.85
-173.70
-198.09
-209.32
-206.89
-193.13
-171.40
-144.86
-116.24
-88.05
-63.01
-44.13
-33.36
-30.67
-33.76
-38.63
-40.88
-37.17
-25.96
-7.46
16.87
45.21
75.44
104.87
130.23
148.22
156.54
154.70
144.03
126.76
104.99
80.08
52.94
25.04
-0.80
-20.50
-29.99
-26.83
-11.46
12.95
41.65
69.91
94.32
112.98
125.24
130.94
129.83
121.58
106.15
84.41
58.52
31.71
7.55
-11.06
-22.74
-27.81
-27.93
-25.25
-21.54
-17.71
-13.79
-9.25
-3.53
3.77
12.76
23.40
35.75
49.98
66.28
84.81
105.60
128.51
153.19
178.94
204.55
228.11
247.11
258.67
260.10
249.72
227.47
195.40
157.37
118.17
82.19
52.28
29.10
11.43
-2.97
-16.29
-29.85
-43.97
-58.23
-71.76
-83.60
-92.75
-98.23
-99.30
-95.72
-87.93
-77.19
-65.24
-53.92
-44.64
-38.21
-34.75
-33.85
-34.81
-36.82
-39.06
-40.83
-41.57
-41.02
-39.17
-36.30
-32.82
-29.08
-25.32
-21.66
-18.20
-15.14
-12.78
-11.46
-11.41
-12.59
-14.69
-17.24
-19.71
-21.74
-23.10
-23.76
-23.79
-23.44
-22.98
-22.72
-22.90
-23.49
-24.24
-24.66
-24.25
-22.70
-19.98
-16.41
-12.44
-8.52
-4.95
-1.84
0.78
2.92
4.57
5.68
6.26
6.41
6.31
6.14
6.06
6.11
6.24
6.31
6.22
5.91
5.38
4.69
3.95
3.25
2.62
2.04
1.43
0.68
-0.25
-1.33
-2.49
-3.64
-4.79
-6.02
-7.50
-9.41
-11.86
-14.80
-18.02
-21.16
-23.75
-25.30
-25.49
-24.17
-21.48
-17.81
-13.66
-9.49
-5.58
-2.06
1.08
3.82
6.11
7.81
8.84
9.22
9.11
8.72
8.27
7.85
7.42
6.91
6.26
5.50
4.76
4.20
3.92
3.91
4.02
4.00
3.60
2.63
1.04
-1.10
-3.58
-6.14
-8.53
-10.60
-12.31
-13.74
-15.05
-16.38
-17.74
-18.99
-19.88
-20.14
-19.62
-18.33
-16.40
-14.06
-11.50
-8.84
-6.11
-3.33
-0.50
2.29
4.89
7.10
8.70
9.56
9.71
9.33
8.72
8.09
7.50
6.82
5.81
4.40
2.70
1.08
-0.11
-0.71
-0.95
-1.31
-2.28
-4.13
-6.65
-9.44
-12.03
-14.22
-16.18
-18.30
-21.00
-24.54
-28.84
-33.64
-38.55
-43.19
-47.26
-50.52
-52.84
-54.20
-54.73
-54.62
-54.10
-53.29
-52.19
-50.75
-48.86
-46.46
-43.52
-40.06
-36.19
-32.19
-28.39
-25.10
-22.47
-20.36
-18.35
-15.84
-12.31
-7.44
-1.21
6.08
13.93
21.89
29.58
36.91
44.00
51.07
58.25
65.38
71.99
77.31
80.55
81.00
78.15
71.65
61.24
46.73
28.15
5.94
-18.80
-44.27
-68.28
-88.75
-104.46
-115.31
-122.39
-127.42
-132.08
-137.48
-143.78
-150.36
-156.05
-159.38
-158.81
-152.93
-140.72
-121.87
-97.20
-68.57
-38.60
-9.86
15.95
38.58
59.18
79.89
102.96
129.83
160.38
192.60
222.81
246.65
260.48
262.82
255.00
240.82
225.21
212.47
204.95
202.74
204.38
207.97
212.08
215.90
218.86
220.08
218.22
211.73
199.55
181.54
158.75
133.10
106.78
81.66
58.71
37.83
18.18
-1.31
-21.19
-41.18
-60.15
-76.74
-89.94
-99.70
-106.89
-112.86
-118.72
-124.86
-130.77
-135.43
-137.83
-137.52
-134.84
-130.67
-126.12
-121.96
-118.51
-115.58
-112.79
-109.90
-106.92
-104.16
-101.91
-100.35
-99.38
-98.75
-98.19
-97.61
-97.04
-96.47
-95.62
-93.90
-90.52
-84.80
-76.47
-65.82
-53.61
-40.84
-28.47
-17.28
-7.78
-0.23
5.29
8.85
10.69
11.18
10.78
9.99
9.19
8.66
8.51
8.75
9.29
10.01
10.80
11.49
11.94
11.99
11.54
10.54
8.99
6.92
4.39
1.50
-1.65
-4.89
-8.03
-10.93
-13.57
-16.07
-18.65
-21.48
-24.54
-27.51
-29.75
-30.49
-29.03
-25.03
-18.63
-10.42
-1.27
7.92
16.39
23.61
29.27
33.20
35.35
35.78
34.75
32.63
29.86
26.90
24.08
21.56
19.39
17.52
15.91
14.53
13.38
12.43
11.56
10.64
9.45
7.81
5.66
3.07
0.22
-2.64
-5.32
-7.78
-10.11
-12.52
-15.29
-18.63
-22.58
-26.95
-31.27
-34.87
-36.96
-36.85
-34.07
-28.56
-20.71
-11.30
-1.32
8.22
16.48
22.89
27.24
29.55
30.07
29.22
27.43
25.15
22.75
20.43
18.27
16.22
14.19
12.17
10.28
8.66
7.48
6.74
6.25
5.71
4.78
3.21
0.95
-1.89
-5.06
-8.29
-11.37
-14.21
-16.91
-19.70
-22.89
-26.72
-31.06
-35.34
-38.54
-39.44
-37.10
-31.16
-22.12
-11.12
0.35
10.95
19.71
26.21
30.42
32.61
33.15
32.45
30.95
29.08
27.21
25.54
24.10
22.76
21.30
19.57
17.54
15.35
13.22
11.31
9.63
8.03
6.27
4.12
1.57
-1.26
-4.14
-6.86
-9.39
-11.87
-14.54
-17.70
-21.55
-26.12
-31.10
-35.91
-39.60
-41.12
-39.57
-34.56
-26.33
-15.76
-4.11
7.33
17.50
25.72
31.72
35.48
37.20
37.21
35.93
33.83
31.35
28.84
26.48
24.32
22.34
20.48
18.77
17.29
16.10
15.24
14.59
13.90
12.84
11.12
8.61
5.41
1.81
-1.87
-5.34
-8.53
-11.55
-14.70
-18.36
-22.73
-27.78
-33.00
-37.47
-40.03
-39.64
-35.72
-28.45
-18.67
-7.64
3.30
13.15
21.30
27.53
31.82
34.24
34.95
34.23
32.50
30.27
27.96
25.86
24.05
22.45
20.92
19.39
17.87
16.46
15.28
14.39
13.72
13.07
12.20
10.88
8.99
6.54
3.63
0.42
-2.94
-6.40
-10.00
-13.90
-18.30
-23.33
-28.92
-34.61
-39.57
-42.72
-43.00
-39.75
-33.00
-23.49
-12.52
-1.53
8.24
16.02
21.55
24.98
26.64
26.90
26.10
24.52
22.41
20.00
17.55
15.20
13.08
11.24
9.72
8.52
7.63
6.97
6.44
5.85
5.02
3.83
2.22
0.22
-2.04
-4.46
-6.96
-9.52
-12.24
-15.31
-18.93
-23.09
-27.51
-31.47
-33.97
-33.99
-30.85
-24.52
-15.70
-5.57
4.53
13.47
20.55
25.52
28.48
29.68
29.49
28.27
26.46
24.42
22.44
20.68
19.15
17.75
16.36
14.89
13.34
11.77
10.28
8.90
7.60
6.26
4.73
2.87
0.68
-1.75
-4.25
-6.68
-9.01
-11.34
-13.91
-16.99
-20.76
-25.19
-29.90
-34.16
-36.96
-37.34
-34.63
-28.74
-20.22
-10.19
0.04
9.28
16.73
22.04
25.25
26.64
26.54
25.28
23.17
20.54
17.74
15.08
12.74
10.79
9.15
7.69
6.35
5.12
4.09
3.26
2.56
1.78
0.71
-0.80
-2.72
-4.91
-7.13
-9.19
-11.08
-12.94
-15.02
-17.65
-21.01
-25.11
-29.61
-33.82
-36.77
-37.43
-35.00
-29.20
-20.47
-9.83
1.34
11.71
20.32
26.68
30.74
32.75
33.04
31.95
29.84
27.08
24.04
21.14
18.69
16.86
15.64
14.84
14.19
13.50
12.69
11.86
11.18
10.72
10.43
10.04
9.28
8.00
6.27
4.33
2.44
0.64
-1.28
-3.61
-6.52
-9.83
-13.05
-15.55
-16.95
-17.30
-17.06
-16.95
-17.64
-19.54
-22.75
-27.04
-31.96
-36.81
-40.65
-42.45
-41.27
-36.63
-28.72
-18.42
-7.12
3.77
13.08
20.15
24.81
27.30
28.07
27.55
26.14
24.09
21.57
18.71
15.68
12.73
10.16
8.22
7.01
6.46
6.29
6.20
5.91
5.29
4.33
3.06
1.53
-0.28
-2.39
-4.80
-7.51
-10.52
-13.90
-17.77
-22.25
-27.22
-32.13
-36.00
-37.63
-36.00
-30.66
-22.07
-11.41
-0.25
9.96
18.22
24.13
27.79
29.45
29.45
28.04
25.51
22.20
18.53
14.90
11.64
8.97
6.93
5.53
4.66
4.20
3.95
3.74
3.40
2.81
1.96
0.85
-0.50
-2.11
-4.05
-6.39
-9.20
-12.52
-16.36
-20.69
-25.28
-29.64
-32.98
-34.37
-33.03
-28.58
-21.28
-12.01
-1.99
7.53
15.60
21.70
25.68
27.73
28.14
27.23
25.34
22.81
19.95
17.01
14.20
11.60
9.27
7.28
5.72
4.65
4.07
3.87
3.82
3.67
3.18
2.23
0.79
-1.08
-3.33
-5.91
-8.85
-12.22
-16.06
-20.32
-24.72
-28.72
-31.57
-32.40
-30.60
-25.98
-18.91
-10.26
-1.12
7.42
14.55
19.82
23.12
24.57
24.41
22.98
20.57
17.49
14.05
10.56
7.36
4.73
2.86
1.75
1.27
1.09
0.91
0.52
-0.11
-0.87
-1.60
-2.22
-2.79
-3.50
-4.60
-6.34
-8.89
-12.23
-16.22
-20.47
-24.40
-27.28
-28.37
-27.12
-23.31
-17.22
-9.54
-1.26
6.61
13.27
18.27
21.47
23.02
23.14
22.09
20.12
17.49
14.49
11.46
8.67
6.34
4.53
3.24
2.43
2.02
1.89
1.88
1.77
1.38
0.59
-0.64
-2.24
-4.13
-6.24
-8.58
-11.20
-14.15
-17.42
-20.81
-24.01
-26.47
-27.59
-26.82
-23.86
-18.78
-12.04
-4.41
3.25
10.17
15.81
19.88
22.31
23.17
22.64
21.04
18.74
16.17
13.68
11.49
9.70
8.28
7.14
6.20
5.42
4.76
4.15
3.51
2.71
1.61
0.11
-1.82
-4.07
-6.44
-8.69
-10.66
-12.31
-13.80
-15.36
-17.27
-19.60
-22.21
-24.63
-26.20
-26.25
-24.29
-20.18
-14.20
-7.02
0.51
7.55
13.40
17.69
20.30
21.31
20.91
19.39
17.05
14.24
11.33
8.62
6.39
4.79
3.90
3.63
3.85
4.31
4.76
4.99
4.93
4.57
3.96
3.13
1.97
0.38
-1.69
-4.13
-6.69
-9.06
-11.01
-12.57
-14.04
-15.84
-18.35
-21.74
-25.77
-29.85
-33.13
-34.73
-34.01
-30.75
-25.22
-18.12
-10.34
-2.74
4.06
9.66
13.93
16.82
18.39
18.73
18.05
16.67
14.94
13.21
11.74
10.63
9.92
9.54
9.41
9.37
9.29
9.01
8.45
7.61
6.57
5.41
4.20
2.92
1.51
-0.11
-2.00
-4.15
-6.49
-8.92
-11.34
-13.61
-15.63
-17.30
-18.56
-19.51
-20.39
-21.52
-23.21
-25.58
-28.36
-30.98
-32.61
-32.46
-30.01
-25.20
-18.45
-10.52
-2.32
5.34
11.84
16.84
20.23
22.04
22.49
21.83
20.41
18.58
16.69
15.02
13.72
12.80
12.17
11.70
11.30
10.97
10.74
10.62
10.56
10.42
10.06
9.34
8.26
6.87
5.25
3.50
1.67
-0.21
-2.13
-4.05
-5.94
-7.79
-9.64
-11.49
-13.35
-15.16
-16.89
-18.56
-20.31
-22.34
-24.88
-27.99
-31.45
-34.72
-37.01
-37.45
-35.41
-30.70
-23.67
-15.18
-6.30
1.94
8.86
14.19
18.01
20.57
22.07
22.61
22.19
20.87
18.85
16.53
14.36
12.70
11.70
11.26
11.21
11.36
11.66
12.12
12.76
13.47
13.99
14.01
13.30
11.80
9.70
7.26
4.78
2.43
0.27
-1.80
-3.92
-6.18
-8.62
-11.13
-13.53
-15.60
-17.21
-18.34
-19.24
-20.27
-21.83
-24.24
-27.51
-31.35
-35.13
-38.06
-39.30
-38.27
-34.71
-28.78
-21.05
-12.32
-3.47
4.72
11.68
17.07
20.78
22.91
23.70
23.49
22.66
21.55
20.45
19.51
18.79
18.26
17.87
17.60
17.46
17.49
17.70
18.04
18.35
18.44
18.13
17.25
15.80
13.83
11.52
9.03
6.49
3.95
1.32
-1.45
-4.42
-7.54
-10.71
-13.75
-16.50
-18.88
-20.94
-22.85
-24.90
-27.42
-30.67
-34.75
-39.39
-43.93
-47.41
-48.74
-47.11
-42.20
-34.37
-24.53
-13.87
-3.52
5.67
13.22
19.02
23.09
25.58
26.63
26.51
25.55
24.17
22.74
21.51
20.56
19.82
19.22
18.74
18.45
18.48
18.84
19.44
20.02
20.27
19.94
18.95
17.39
15.43
13.27
11.04
8.81
6.61
4.41
2.12
-0.35
-3.09
-6.12
-9.34
-12.58
-15.64
-18.41
-20.91
-23.37
-26.10
-29.38
-33.32
-37.66
-41.79
-44.80
-45.72
-43.73
-38.52
-30.35
-20.06
-8.80
2.24
12.09
20.16
26.20
30.28
32.59
33.40
32.99
31.62
29.58
27.16
24.67
22.44
20.68
19.53
19.00
18.99
19.36
19.91
20.41
20.65
20.40
19.49
17.90
15.75
13.22
10.57
7.96
5.44
2.96
0.36
-2.50
-5.66
-9.09
-12.62
-16.02
-19.13
-21.95
-24.63
-27.48
-30.87
-35.02
-39.89
-45.08
-49.79
-52.97
-53.56
-50.79
-44.39
-34.76
-22.87
-10.00
2.52
13.65
22.72
29.50
34.02
36.53
37.32
36.75
35.14
32.83
30.16
27.45
24.93
22.81
21.18
20.06
19.40
19.10
19.07
19.17
19.27
19.20
18.79
17.92
16.53
14.63
12.31
9.68
6.77
3.58
0.07
-3.78
-7.88
-12.06
-16.09
-19.81
-23.18
-26.32
-29.49
-33.03
-37.19
-41.99
-47.13
-51.82
-55.01
-55.55
-52.56
-45.75
-35.58
-23.18
-10.02
2.46
13.17
21.56
27.53
31.28
33.10
33.27
32.07
29.86
27.06
24.18
21.66
19.83
18.81
18.50
18.70
19.18
19.68
20.00
19.96
19.48
18.49
17.07
15.31
13.30
11.11
8.71
6.06
3.09
-0.23
-3.85
-7.63
-11.42
-15.08
-18.53
-21.81
-25.08
-28.58
-32.57
-37.21
-42.40
-47.66
-52.07
-54.45
-53.61
-48.83
-40.09
-28.22
-14.68
-1.13
10.98
20.78
28.01
32.85
35.71
36.94
36.83
35.60
33.53
30.95
28.27
25.84
23.92
22.55
21.66
21.11
20.72
20.41
20.09
19.73
19.22
18.44
17.27
15.57
13.29
10.41
7.01
3.17
-0.99
-5.28
-9.57
-13.69
-17.57
-21.21
-24.70
-28.26
-32.11
-36.50
-41.55
-47.11
-52.64
-57.19
-59.51
-58.43
-53.17
-43.74
-31.02
-16.51
-1.93
11.22
22.04
30.19
35.83
39.30
40.96
41.16
40.17
38.32
35.94
33.36
30.92
28.86
27.34
26.43
26.04
26.02
26.11
26.01
25.53
24.56
23.11
21.26
19.11
16.73
14.09
11.14
7.80
4.09
0.05
-4.16
-8.34
-12.34
-16.04
-19.46
-22.72
-26.11
-29.97
-34.64
-40.30
-46.75
-53.30
-58.74
-61.62
-60.63
-55.06
-45.12
-31.89
-17.05
-2.38
10.66
21.19
28.95
34.10
37.04
38.24
38.15
37.17
35.64
33.90
32.21
30.78
29.71
28.99
28.53
28.20
27.89
27.51
27.00
26.35
25.50
24.38
22.88
20.90
18.39
15.38
12.00
8.37
4.63
0.83
-3.03
-6.96
-10.92
-14.84
-18.63
-22.23
-25.70
-29.26
-33.19
-37.77
-43.08
-48.84
-54.33
-58.45
-59.97
-57.84
-51.58
-41.50
-28.60
-14.36
-0.32
12.28
22.69
30.64
36.19
39.59
41.18
41.33
40.50
39.10
37.55
36.11
34.90
33.96
33.20
32.59
32.10
31.75
31.56
31.50
31.48
31.32
30.77
29.59
27.66
24.96
21.70
18.08
14.36
10.62
6.83
2.88
-1.30
-5.69
-10.17
-14.52
-18.56
-22.19
-25.49
-28.67
-32.10
-36.22
-41.31
-47.35
-53.81
-59.57
-63.15
-63.12
-58.55
-49.39
-36.53
-21.55
-6.26
7.72
19.27
27.88
33.55
36.61
37.61
37.13
35.77
33.98
32.11
30.34
28.76
27.42
26.35
25.61
25.19
25.06
25.12
25.25
25.34
25.23
24.81
23.89
22.35
20.15
17.43
14.45
11.52
8.86
6.44
4.02
1.24
-2.11
-5.98
-10.01
-13.70
-16.69
-18.92
-20.74
-22.72
-25.48
-29.43
-34.63
-40.71
-46.84
-51.86
-54.45
-53.47
-48.31
-39.19
-27.13
-13.72
-0.61
10.90
20.16
27.08
31.87
34.87
36.32
36.44
35.54
34.01
32.27
30.66
29.32
28.21
27.24
26.34
25.52
24.92
24.63
24.66
24.85
24.95
24.70
23.94
22.62
20.82
18.65
16.20
13.46
10.38
6.90
3.05
-1.05
-5.21
-9.23
-12.98
-16.43
-19.67
-22.87
-26.26
-30.11
-34.55
-39.47
-44.40
-48.45
-50.51
-49.54
-44.95
-36.87
-26.15
-14.15
-2.31
8.21
16.74
23.07
27.31
29.65
30.32
29.54
27.60
24.93
22.01
19.33
17.23
15.89
15.25
15.12
15.20
15.21
14.98
14.45
13.68
12.75
11.73
10.58
9.23
7.56
5.50
3.05
0.20
-3.01
-6.54
-10.31
-14.20
-18.06
-21.77
-25.32
-28.84
-32.58
-36.76
-41.47
-46.46
-51.10
-54.42
-55.32
-52.90
-46.78
-37.28
-25.43
-12.66
-0.42
10.15
18.48
24.47
28.35
30.43
30.98
30.22
28.46
26.05
23.44
21.05
19.13
17.73
16.75
16.03
15.48
15.11
14.94
14.98
15.12
15.17
14.90
14.09
12.67
10.63
8.02
4.93
1.46
-2.28
-6.10
-9.79
-13.19
-16.25
-19.08
-21.92
-25.11
-28.90
-33.40
-38.43
-43.50
-47.86
-50.58
-50.73
-47.73
-41.45
-32.38
-21.51
-10.05
0.83
10.30
17.92
23.56
27.30
29.34
29.92
29.36
27.99
26.20
24.30
22.47
20.85
19.45
18.31
17.43
16.81
16.38
16.02
15.59
15.01
14.27
13.36
12.22
10.74
8.72
5.98
2.51
-1.56
-5.92
-10.21
-14.14
-17.58
-20.56
-23.29
-26.07
-29.25
-33.10
-37.69
-42.71
-47.42
-50.78
-51.62
-49.10
-42.95
-33.63
-22.20
-10.06
1.51
11.53
19.50
25.28
28.98
30.84
31.17
30.34
28.75
26.86
25.04
23.53
22.40
21.59
20.94
20.34
19.69
18.97
18.18
17.33
16.43
15.50
14.54
13.53
12.36
10.89
8.94
6.48
3.55
0.35
-2.91
-6.11
-9.25
-12.47
-15.92
-19.75
-24.06
-28.92
-34.33
-40.10
-45.75
-50.36
-52.79
-51.90
-47.08
-38.47
-27.05
-14.35
-1.96
8.84
17.37
23.48
27.43
29.57
30.23
29.70
28.25
26.23
23.96
21.78
19.91
18.43
17.30
16.46
15.81
15.29
14.88
14.53
14.24
13.97
13.63
13.13
12.32
11.01
9.07
6.41
3.10
-0.69
-4.65
-8.46
-11.88
-14.87
-17.52
-20.09
-22.84
-26.05
-29.89
-34.38
-39.33
-44.20
-48.10
-49.91
-48.55
-43.42
-34.69
-23.31
-10.79
1.34
11.86
20.12
26.02
29.73
31.56
31.80
30.79
28.91
26.59
24.19
22.02
20.19
18.74
17.64
16.84
16.29
15.91
15.60
15.26
14.83
14.31
13.69
12.93
11.90
10.37
8.13
5.08
1.31
-2.91
-7.20
-11.22
-14.76
-17.83
-20.68
-23.64
-27.06
-31.17
-35.98
-41.18
-46.15
-49.97
-51.57
-49.98
-44.66
-35.70
-23.95
-10.83
2.02
13.23
21.95
28.04
31.81
33.85
34.66
34.51
33.53
31.79
29.49
26.91
24.43
22.31
20.67
19.41
18.33
17.26
16.15
15.08
14.15
13.47
12.95
12.34
11.34
9.65
7.10
3.76
-0.12
-4.25
-8.29
-11.98
-15.25
-18.11
-20.72
-23.30
-26.17
-29.60
-33.80
-38.65
-43.63
-47.79
-49.89
-48.85
-44.03
-35.59
-24.43
-11.96
0.33
11.25
20.12
26.72
31.16
33.61
34.25
33.27
30.98
27.87
24.58
21.64
19.38
17.78
16.59
15.46
14.20
12.83
11.54
10.57
10.05
9.96
10.12
10.23
9.97
8.99
7.04
4.03
0.10
-4.38
-8.94
-13.14
-16.74
-19.78
-22.55
-25.52
-29.12
-33.59
-38.74
-43.92
-47.99
-49.67
-47.88
-42.20
-33.01
-21.47
-9.12
2.54
12.51
20.28
25.84
29.41
31.24
31.54
30.53
28.54
26.01
23.46
21.30
19.73
18.69
17.93
17.17
16.26
15.24
14.29
13.56
13.06
12.63
11.94
10.70
8.72
6.04
2.91
-0.34
-3.40
-6.10
-8.50
-10.81
-13.45
-16.86
-21.35
-26.99
-33.50
-40.14
-45.81
-49.29
-49.48
-45.82
-38.41
-28.06
-16.06
-3.84
7.40
16.87
24.18
29.31
32.37
33.57
33.16
31.46
28.90
25.94
22.95
20.16
17.59
15.13
12.68
10.25
7.99
6.19
5.07
4.70
4.90
5.25
5.22
4.37
2.41
-0.68
-4.65
-9.09
-13.52
-17.59
-21.19
-24.50
-27.91
-31.92
-36.88
-42.80
-49.16
-54.94
-58.78
-59.36
-55.76
-47.87
-36.47
-23.04
-9.33
3.11
13.33
21.06
26.49
30.00
31.91
32.40
31.65
29.87
27.45
24.86
22.47
20.49
18.91
17.57
16.24
14.86
13.49
12.31
11.48
11.05
10.80
10.34
9.20
7.02
3.76
-0.28
-4.56
-8.53
-11.89
-14.70
-17.35
-20.33
-24.09
-28.83
-34.52
-40.79
-46.95
-51.96
-54.61
-53.77
-48.79
-39.83
-27.86
-14.47
-1.35
10.14
19.31
26.04
30.58
33.29
34.43
34.22
32.88
30.78
28.37
26.16
24.50
23.52
23.05
22.78
22.35
21.55
20.43
19.19
18.12
17.40
16.95
16.43
15.31
13.18
9.80
5.33
0.27
-4.79
-9.34
-13.19
-16.43
-19.46
-22.72
-26.63
-31.42
-37.03
-43.05
-48.62
-52.61
-53.76
-51.14
-44.42
-34.14
-21.51
-8.12
4.49
15.26
23.68
29.73
33.66
35.73
36.19
35.24
33.21
30.53
27.76
25.40
23.74
22.79
22.29
21.90
21.33
20.54
19.64
18.87
18.37
18.13
17.89
17.24
15.82
13.35
9.82
5.49
0.84
-3.68
-7.71
-11.18
-14.28
-17.37
-20.85
-25.06
-30.13
-35.96
-42.08
-47.68
-51.57
-52.52
-49.60
-42.58
-32.07
-19.38
-6.17
6.09
16.40
24.43
30.20
33.99
35.99
36.36
35.29
33.10
30.30
27.49
25.18
23.61
22.74
22.24
21.72
20.92
19.75
18.35
16.91
15.61
14.42
13.18
11.58
9.35
6.34
2.61
-1.53
-5.71
-9.56
-12.91
-15.87
-18.74
-21.92
-25.73
-30.30
-35.52
-41.02
-46.10
-49.80
-51.05
-48.93
-43.04
-33.66
-21.88
-9.16
2.96
13.38
21.56
27.46
31.30
33.30
33.64
32.47
30.14
27.18
24.25
21.91
20.41
19.69
19.37
19.02
18.35
17.34
16.19
15.22
14.59
14.22
13.74
12.65
10.54
7.27
3.11
-1.42
-5.77
-9.52
-12.65
-15.45
-18.42
-22.09
-26.80
-32.56
-38.99
-45.25
-50.10
-52.22
-50.51
-44.58
-34.90
-22.75
-9.77
2.50
13.06
21.52
27.89
32.34
34.97
35.85
35.08
33.02
30.23
27.36
24.97
23.27
22.20
21.44
20.66
19.62
18.31
16.91
15.62
14.58
13.74
12.89
11.71
9.91
7.27
3.77
-0.47
-5.11
-9.74
-13.99
-17.65
-20.78
-23.70
-26.92
-30.88
-35.76
-41.22
-46.37
-49.92
-50.50
-47.15
-39.69
-28.86
-16.15
-3.28
8.26
17.63
24.67
29.64
32.90
34.65
34.95
33.86
31.68
28.98
26.46
24.64
23.70
23.39
23.21
22.67
21.57
20.00
18.31
16.84
15.80
15.11
14.45
13.41
11.54
8.64
4.74
0.17
-4.58
-9.01
-12.81
-15.93
-18.62
-21.30
-24.47
-28.53
-33.66
-39.63
-45.72
-50.74
-53.28
-52.10
-46.57
-37.01
-24.62
-11.12
1.71
12.59
20.91
26.72
30.47
32.66
33.68
33.75
32.98
31.53
29.65
27.67
25.88
24.44
23.32
22.29
21.08
19.53
17.63
15.60
13.65
11.96
10.49
9.04
7.28
4.99
2.06
-1.41
-5.18
-9.01
-12.67
-16.03
-19.07
-21.84
-24.53
-27.37
-30.71
-34.76
-39.46
-44.23
-48.03
-49.55
-47.64
-41.78
-32.33
-20.49
-7.92
3.78
13.55
20.99
26.29
29.86
32.02
32.94
32.65
31.25
29.01
26.39
23.93
22.04
20.88
20.33
20.08
19.80
19.23
18.36
17.28
16.17
15.16
14.16
12.92
11.12
8.51
5.04
0.92
-3.48
-7.76
-11.66
-15.14
-18.34
-21.50
-24.86
-28.57
-32.72
-37.27
-42.00
-46.36
-49.49
-50.31
-47.86
-41.73
-32.26
-20.55
-8.13
3.53
13.41
21.02
26.41
29.77
31.38
31.46
30.24
28.05
25.33
22.56
20.10
18.18
16.75
15.64
14.60
13.46
12.22
10.96
9.91
9.20
8.78
8.42
7.77
6.48
4.32
1.31
-2.35
-6.28
-10.09
-13.47
-16.29
-18.72
-21.09
-23.92
-27.65
-32.46
-38.11
-43.80
-48.31
-50.27
-48.61
-42.90
-33.61
-21.94
-9.48
2.24
12.17
19.86
25.34
28.84
30.64
30.93
29.92
27.91
25.33
22.68
20.34
18.53
17.24
16.30
15.47
14.56
13.53
12.43
11.45
10.73
10.27
9.86
9.12
7.62
5.09
1.53
-2.71
-7.08
-11.06
-14.36
-17.07
-19.55
-22.31
-25.75
-30.05
-35.13
-40.53
-45.53
-49.10
-50.15
-47.80
-41.66
-32.13
-20.34
-7.81
3.92
13.81
21.38
26.70
30.02
31.64
31.78
30.67
28.64
26.20
23.83
21.91
20.52
19.50
18.53
17.34
15.86
14.23
12.72
11.58
10.87
10.39
9.78
8.61
6.57
3.57
-0.20
-4.42
-8.68
-12.68
-16.31
-19.64
-22.88
-26.36
-30.38
-35.12
-40.50
-46.02
-50.80
-53.64
-53.36
-49.18
-41.08
-29.87
-17.01
-4.16
7.28
16.43
23.09
27.45
29.92
30.87
30.61
29.36
27.34
24.89
22.34
20.05
18.24
16.94
16.03
15.29
14.59
13.86
13.21
12.70
12.33
11.86
10.95
9.23
6.47
2.74
-1.65
-6.26
-10.69
-14.69
-18.32
-21.80
-25.51
-29.85
-35.11
-41.34
-48.18
-54.80
-59.93
-62.16
-60.33
-54.04
-43.79
-30.92
-17.14
-4.06
7.19
16.16
22.84
27.45
30.21
31.31
30.94
29.40
27.20
24.85
22.82
21.41
20.62
20.21
19.86
19.32
18.55
17.82
17.58
18.22
19.84
22.00
23.93
24.70
23.73
20.94
16.79
12.00
7.18
2.64
-1.63
-5.80
-10.06
-14.57
-19.42
-24.66
-30.15
-35.47
-39.72
-41.74
-40.43
-35.25
-26.46
-15.14
-2.90
8.63
18.24
25.33
29.93
32.42
33.32
33.06
31.99
30.34
28.37
26.35
24.55
23.11
22.04
21.20
20.39
19.50
18.53
17.56
16.70
15.94
15.09
13.82
11.81
8.88
5.06
0.60
-4.10
-8.67
-12.90
-16.73
-20.31
-23.92
-27.84
-32.31
-37.22
-42.15
-46.20
-48.24
-47.19
-42.43
-34.12
-23.16
-11.00
0.80
10.97
18.82
24.15
27.20
28.37
28.09
26.75
24.64
21.97
18.86
15.43
11.84
8.28
4.94
1.95
-0.65
-2.94
-4.95
-6.73
-8.28
-9.68
-11.09
-12.81
-15.10
-18.14
-21.87
-26.04
-30.37
-34.64
-38.86
-43.20
-47.92
-53.27
-59.23
-65.47
-71.22
-75.30
-76.44
-73.60
-66.43
-55.46
-42.01
-27.73
-14.09
-2.05
8.07
16.31
22.82
27.65
30.86
32.75
33.96
35.34
37.62
41.03
45.19
49.34
52.71
54.91
55.97
56.25
56.10
55.78
55.42
55.28
55.84
57.75
61.49
66.94
73.24
78.91
82.44
82.92
80.42
75.99
71.36
68.29
68.07
71.30
77.73
86.40
95.79
104.01
109.18
109.70
104.66
94.05
78.81
60.69
41.84
24.29
9.38
-2.59
-12.33
-21.26
-30.85
-42.01
-54.80
-68.48
-81.91
-93.95
-103.71
-110.53
-113.87
-113.27
-108.49
-99.77
-87.99
-74.61
-61.33
-49.59
-40.08
-32.58
-26.13
-19.64
-12.38
-4.19
4.57
13.45
22.13
30.36
37.76
43.81
47.96
50.05
50.30
49.11
46.45
41.54
33.05
19.92
2.39
-17.74
-37.46
-53.77
-64.86
-70.63
-72.33
-71.58
-69.66
-67.09
-63.90
-60.07
-55.85
-51.78
-48.43
-46.16
-44.95
-44.47
-44.23
-43.82
-42.99
-41.76
-40.32
-38.93
-37.81
-37.05
-36.66
-36.60
-36.86
-37.55
-38.85
-41.02
-44.25
-48.55
-53.56
-58.49
-62.19
-63.36
-60.94
-54.52
-44.41
-31.68
-17.75
-4.01
8.49
19.15
27.74
34.24
38.67
41.11
41.70
40.73
38.65
36.07
33.53
31.41
29.81
28.59
27.48
26.28
24.99
23.75
22.76
22.04
21.36
20.28
18.40
15.49
11.63
7.11
2.38
-2.25
-6.61
-10.71
-14.75
-19.06
-24.02
-29.92
-36.79
-44.10
-50.79
-55.36
-56.30
-52.65
-44.35
-32.30
-18.10
-3.52
9.97
21.41
30.39
36.86
40.98
43.07
43.59
43.15
42.32
41.46
40.59
39.40
37.49
34.53
30.53
25.83
21.02
16.67
13.19
10.67
8.90
7.44
5.75
3.44
0.30
-3.61
-7.99
-12.50
-16.84
-20.93
-24.94
-29.24
-34.24
-40.22
-47.06
-54.08
-60.05
-63.42
-62.80
-57.37
-47.25
-33.50
-17.76
-1.83
12.85
25.32
35.17
42.30
46.79
48.80
48.64
46.72
43.66
40.15
36.76
33.89
31.64
29.93
28.59
27.47
26.57
25.94
25.62
25.46
25.09
24.01
21.80
18.28
13.66
8.46
3.28
-1.46
-5.64
-9.50
-13.44
-17.88
-23.09
-29.16
-35.89
-42.83
-49.17
-53.75
-55.33
-52.81
-45.74
-34.54
-20.45
-5.23
9.36
22.00
32.05
39.36
44.14
46.65
47.15
45.92
43.38
40.08
36.64
33.57
31.08
29.10
27.38
25.63
23.75
21.80
19.98
18.44
17.18
15.93
14.29
11.88
8.47
4.19
-0.56
-5.26
-9.52
-13.20
-16.48
-19.79
-23.64
-28.42
-34.25
-40.85
-47.45
-52.91
-55.85
-55.04
-49.81
-40.26
-27.33
-12.51
2.52
16.29
27.82
36.63
42.62
45.95
46.93
46.00
43.74
40.80
37.83
35.27
33.31
31.81
30.47
28.95
27.11
25.08
23.18
21.81
21.15
21.06
21.07
20.50
18.78
15.64
11.26
6.15
0.92
-4.03
-8.63
-13.11
-17.87
-23.26
-29.50
-36.51
-43.97
-51.22
-57.26
-60.88
-60.89
-56.50
-47.70
-35.37
-21.09
-6.68
6.36
17.08
25.19
30.84
34.36
36.10
36.42
35.69
34.38
32.91
31.62
30.59
29.72
28.78
27.63
26.28
24.87
23.59
22.54
21.59
20.47
18.82
16.38
13.11
9.15
4.82
0.41
-3.88
-8.06
-12.30
-16.87
-22.08
-28.08
-34.74
-41.52
-47.48
-51.38
-51.99
-48.54
-40.96
-30.03
-17.12
-3.86
8.31
18.43
26.08
31.27
34.26
35.35
34.85
33.07
30.32
26.92
23.25
19.65
16.45
13.84
11.96
10.80
10.24
10.07
10.04
9.92
9.49
8.58
7.10
4.97
2.24
-0.96
-4.40
-7.84
-11.19
-14.58
-18.35
-22.94
-28.67
-35.41
-42.48
-48.62
-52.32
-52.22
-47.60
-38.66
-26.46
-12.67
0.99
13.11
22.86
30.00
34.65
37.10
37.70
36.82
34.82
32.13
29.08
25.97
22.98
20.24
17.84
15.83
14.24
13.02
12.06
11.19
10.24
9.03
7.43
5.33
2.67
-0.53
-4.14
-7.92
-11.68
-15.34
-19.03
-23.14
-28.11
-34.14
-40.94
-47.55
-52.48
-54.19
-51.57
-44.36
-33.34
-20.04
-6.22
6.55
17.28
25.53
31.29
34.77
36.26
36.13
34.84
32.80
30.41
27.87
25.23
22.49
19.71
17.06
14.81
13.16
12.15
11.54
10.95
9.96
8.28
5.81
2.64
-1.07
-5.09
-9.21
-13.21
-16.97
-20.49
-24.00
-27.96
-32.82
-38.72
-45.22
-51.13
-54.82
-54.72
-49.90
-40.48
-27.61
-13.11
1.12
13.59
23.51
30.65
35.22
37.56
38.03
36.94
34.67
31.66
28.37
25.25
22.58
20.42
18.63
17.01
15.37
13.73
12.24
11.06
10.19
9.39
8.26
6.43
3.76
0.43
-3.21
-6.79
-10.15
-13.37
-16.76
-20.67
-25.41
-31.10
-37.48
-43.86
-49.09
-51.72
-50.49
-44.75
-34.81
-21.91
-7.90
5.45
16.80
25.56
31.74
35.61
37.49
37.60
36.20
33.61
30.31
26.86
23.67
20.99
18.81
17.01
15.43
14.02
12.79
11.75
10.87
9.98
8.79
7.05
4.59
1.42
-2.27
-6.21
-10.14
-13.90
-17.51
-21.20
-25.38
-30.43
-36.54
-43.37
-50.00
-54.96
-56.66
-53.89
-46.30
-34.58
-20.29
-5.39
8.32
19.61
27.98
33.51
36.57
37.64
37.12
35.32
32.58
29.26
25.76
22.44
19.53
17.10
15.07
13.31
11.75
10.39
9.27
8.35
7.47
6.31
4.58
2.06
-1.25
-5.13
-9.25
-13.33
-17.21
-21.01
-24.99
-29.56
-34.94
-40.98
-46.96
-51.60
-53.38
-51.01
-43.96
-32.76
-18.89
-4.31
9.07
19.96
27.85
32.86
35.52
36.35
35.80
34.15
31.61
28.43
24.85
21.18
17.67
14.54
11.93
9.91
8.46
7.47
6.71
5.87
4.67
2.94
0.66
-2.01
-4.85
-7.70
-10.57
-13.60
-17.04
-21.14
-26.09
-31.92
-38.36
-44.79
-50.15
-53.12
-52.45
-47.40
-38.08
-25.49
-11.31
2.66
14.92
24.61
31.52
35.86
38.05
38.46
37.41
35.21
32.20
28.74
25.21
21.89
18.97
16.52
14.56
13.06
11.93
11.03
10.11
8.90
7.21
4.95
2.20
-0.86
-4.05
-7.33
-10.74
-14.52
-18.90
-24.12
-30.25
-37.01
-43.72
-49.19
-52.10
-51.17
-45.80
-36.22
-23.56
-9.55
4.02
15.74
24.86
31.25
35.23
37.24
37.68
36.84
34.90
32.08
28.66
24.99
21.40
18.21
15.59
13.58
12.09
10.88
9.67
8.21
6.37
4.11
1.55
-1.20
-4.11
-7.19
-10.51
-14.15
-18.21
-22.80
-28.07
-34.02
-40.36
-46.28
-50.55
-51.74
-48.75
-41.28
-30.04
-16.53
-2.64
9.96
20.13
27.49
32.15
34.57
35.20
34.46
32.65
30.04
26.91
23.58
20.36
17.54
15.28
13.63
12.46
11.57
10.70
9.61
8.09
6.06
3.50
0.51
-2.78
-6.20
-9.66
-13.12
-16.68
-20.55
-25.01
-30.26
-36.25
-42.45
-47.87
-51.21
-51.20
-47.05
-38.79
-27.30
-14.07
-0.78
11.17
20.83
27.87
32.36
34.62
35.07
34.12
32.12
29.38
26.13
22.62
19.14
15.99
13.43
11.63
10.59
10.10
9.84
9.47
8.73
7.46
5.64
3.27
0.43
-2.78
-6.22
-9.76
-13.34
-17.05
-21.16
-25.98
-31.67
-37.98
-44.06
-48.62
-50.16
-47.54
-40.41
-29.43
-16.09
-2.21
10.56
21.13
29.07
34.46
37.59
38.79
38.41
36.79
34.34
31.49
28.58
25.79
23.20
20.82
18.72
17.05
15.92
15.34
15.09
14.77
13.96
12.35
9.82
6.50
2.62
-1.55
-5.81
-10.02
-14.12
-18.18
-22.38
-26.99
-32.24
-38.00
-43.65
-48.01
-49.72
-47.60
-41.26
-31.21
-18.79
-5.73
6.38
16.43
23.95
28.98
31.85
32.94
32.65
31.34
29.34
26.98
24.54
22.26
20.28
18.63
17.30
16.17
15.14
14.06
12.86
11.44
9.77
7.74
5.28
2.33
-1.06
-4.73
-8.45
-11.99
-15.28
-18.44
-21.78
-25.72
-30.50
-36.05
-41.76
-46.53
-48.98
-47.88
-42.60
-33.36
-21.31
-8.14
4.43
15.11
23.29
28.97
32.48
34.18
34.34
33.12
30.75
27.59
24.12
20.81
18.04
15.98
14.63
13.88
13.52
13.34
13.09
12.53
11.47
9.80
7.48
4.59
1.26
-2.34
-6.06
-9.81
-13.56
-17.43
-21.67
-26.54
-32.15
-38.22
-43.94
-48.04
-49.14
-46.22
-39.05
-28.35
-15.56
-2.44
9.45
19.10
26.13
30.64
32.94
33.45
32.51
30.50
27.79
24.77
21.74
18.95
16.55
14.56
13.00
11.82
10.97
10.32
9.72
8.94
7.73
5.92
3.44
0.40
-2.97
-6.38
-9.65
-12.73
-15.77
-19.07
-22.97
-27.70
-33.27
-39.32
-45.01
-49.17
-50.44
-47.80
-40.88
-30.24
-17.26
-3.69
8.82
19.20
27.02
32.38
35.58
36.93
36.71
35.25
32.97
30.38
27.86
25.58
23.49
21.43
19.29
17.15
15.20
13.63
12.49
11.59
10.62
9.28
7.37
4.84
1.79
-1.65
-5.32
-9.12
-12.98
-16.86
-20.83
-25.03
-29.67
-34.89
-40.58
-46.20
-50.75
-53.03
-51.92
-46.83
-37.97
-26.29
-13.26
-0.41
11.03
20.34
27.31
32.02
34.73
35.71
35.26
33.71
31.46
28.88
26.28
23.86
21.67
19.64
17.70
15.86
14.23
12.99
12.20
11.76
11.32
10.41
8.65
5.89
2.33
-1.58
-5.37
-8.69
-11.50
-14.02
-16.60
-19.63
-23.43
-28.12
-33.59
-39.32
-44.38
-47.52
-47.48
-43.47
-35.50
-24.49
-11.97
0.46
11.52
20.59
27.57
32.61
35.88
37.46
37.41
35.96
33.55
30.75
28.07
25.76
23.77
21.84
19.74
17.41
15.03
12.88
11.21
10.12
9.39
8.64
7.43
5.40
2.45
-1.25
-5.30
-9.25
-12.70
-15.51
-17.77
-19.87
-22.35
-25.75
-30.37
-36.04
-42.10
-47.35
-50.44
-50.16
-45.88
-37.76
-26.71
-14.13
-1.49
9.93
19.30
26.22
30.59
32.60
32.62
31.15
28.81
26.16
23.63
21.43
19.52
17.74
15.89
13.92
11.90
10.02
8.49
7.42
6.68
5.98
4.96
3.29
0.86
-2.20
-5.60
-8.98
-12.07
-14.78
-17.27
-19.85
-22.93
-26.87
-31.79
-37.41
-42.96
-47.22
-48.87
-46.86
-40.79
-31.14
-19.14
-6.38
5.63
15.81
23.65
29.07
32.26
33.50
33.10
31.38
28.74
25.60
22.30
19.13
16.24
13.65
11.36
9.38
7.71
6.39
5.42
4.71
4.06
3.20
1.83
-0.23
-2.97
-6.15
-9.42
-12.43
-15.04
-17.34
-19.72
-22.69
-26.70
-31.86
-37.77
-43.47
-47.61
-48.81
-46.09
-39.25
-28.94
-16.49
-3.52
8.48
18.50
26.04
31.05
33.74
34.42
33.47
31.28
28.31
25.02
21.81
18.94
16.49
14.44
12.69
11.18
9.89
8.84
8.01
7.30
6.48
5.25
3.39
0.81
-2.41
-5.99
-9.65
-13.15
-16.41
-19.54
-22.81
-26.56
-31.09
-36.44
-42.22
-47.51
-51.03
-51.44
-47.87
-40.23
-29.36
-16.74
-4.05
7.37
16.72
23.77
28.62
31.47
32.47
31.81
29.84
27.04
23.99
21.19
18.86
16.97
15.34
13.81
12.37
11.13
10.23
9.69
9.33
8.83
7.84
6.14
3.72
0.71
-2.66
-6.16
-9.63
-13.01
-16.38
-19.97
-24.12
-29.17
-35.21
-41.89
-48.26
-52.93
-54.44
-51.75
-44.66
-33.89
-20.94
-7.54
4.78
15.05
22.91
28.46
31.99
33.77
34.05
33.10
31.27
29.02
26.76
24.78
23.17
21.82
20.58
19.35
18.10
16.92
15.88
14.95
13.96
12.64
10.74
8.09
4.67
0.63
-3.73
-8.05
-12.02
-15.51
-18.65
-21.82
-25.55
-30.27
-36.01
-42.24
-47.82
-51.29
-51.30
-47.09
-38.78
-27.37
-14.37
-1.40
10.26
19.92
27.37
32.73
36.14
37.76
37.73
36.32
33.98
31.33
28.95
27.18
26.04
25.24
24.38
23.18
21.60
19.82
18.17
16.88
15.94
15.10
13.94
12.02
9.08
5.17
0.65
-3.94
-8.12
-11.64
-14.60
-17.40
-20.57
-24.60
-29.75
-35.89
-42.46
-48.44
-52.49
-53.29
-49.93
-42.33
-31.33
-18.48
-5.50
6.20
15.88
23.38
28.86
32.46
34.24
34.24
32.67
30.08
27.16
24.58
22.69
21.48
20.64
19.83
18.87
17.82
16.87
16.17
15.71
15.20
14.26
12.48
9.71
6.05
1.88
-2.35
-6.27
-9.73
-12.79
-15.75
-18.95
-22.77
-27.47
-33.04
-39.08
-44.76
-48.86
-50.12
-47.62
-41.16
-31.35
-19.47
-7.00
4.71
14.80
22.86
28.80
32.68
34.61
34.75
33.44
31.16
28.53
26.03
23.95
22.27
20.73
19.08
17.20
15.23
13.46
12.15
11.32
10.72
9.91
8.47
6.25
3.31
-0.06
-3.54
-6.95
-10.22
-13.45
-16.81
-20.57
-25.00
-30.33
-36.45
-42.74
-48.08
-51.01
-50.20
-44.99
-35.70
-23.55
-10.29
2.37
13.25
21.78
27.98
32.08
34.33
34.92
34.11
32.25
29.85
27.40
25.18
23.22
21.30
19.24
16.97
14.72
12.85
11.66
11.22
11.22
11.14
10.38
8.51
5.45
1.45
-2.99
-7.32
-11.13
-14.32
-17.09
-19.90
-23.31
-27.72
-33.18
-39.21
-44.84
-48.75
-49.68
-46.74
-39.82
-29.63
-17.48
-4.92
6.66
16.41
23.95
29.29
32.61
34.10
33.98
32.61
30.43
27.99
25.78
24.02
22.65
21.39
19.96
18.27
16.50
14.96
13.95
13.48
13.26
12.76
11.46
9.05
5.59
1.45
-2.89
-7.00
-10.69
-14.04
-17.29
-20.78
-24.84
-29.66
-35.23
-41.14
-46.56
-50.29
-51.06
-47.98
-40.85
-30.39
-18.00
-5.32
6.22
15.79
23.16
28.51
32.10
34.16
34.81
34.18
32.58
30.48
28.33
26.48
25.00
23.75
22.50
21.09
19.56
18.07
16.86
15.98
15.30
14.47
13.05
10.73
7.45
3.43
-0.90
-5.08
-8.76
-11.84
-14.47
-17.01
-19.93
-23.66
-28.39
-33.96
-39.74
-44.65
-47.41
-46.88
-42.47
-34.37
-23.56
-11.48
0.38
10.89
19.46
25.97
30.60
33.57
35.04
35.14
34.06
32.14
29.82
27.51
25.45
23.66
21.97
20.22
18.34
16.46
14.82
13.64
12.98
12.69
12.44
11.80
10.42
8.17
5.16
1.71
-1.75
-4.87
-7.49
-9.73
-11.93
-14.58
-18.13
-22.83
-28.64
-35.04
-41.13
-45.72
-47.60
-45.97
-40.63
-32.14
-21.67
-10.63
-0.34
8.33
15.01
19.68
22.55
23.87
23.90
22.96
21.42
19.71
18.17
16.97
16.05
15.20
14.16
12.82
11.29
9.82
8.64
7.85
7.29
6.61
5.41
3.43
0.62
-2.85
-6.65
-10.48
-14.10
-17.44
-20.64
-23.95
-27.77
-32.38
-37.84
-43.71
-49.06
-52.54
-52.91
-49.33
-41.82
-31.24
-19.06
-6.89
3.95
12.68
19.08
23.30
25.67
26.53
26.19
24.93
23.07
20.95
18.86
17.00
15.40
13.99
12.68
11.44
10.35
9.53
9.02
8.73
8.36
7.54
5.96
3.50
0.28
-3.41
-7.22
-10.91
-14.36
-17.64
-21.01
-24.82
-29.40
-34.77
-40.48
-45.56
-48.65
-48.43
-44.12
-35.81
-24.48
-11.79
0.59
11.34
19.84
25.99
30.09
32.46
33.34
32.94
31.49
29.35
26.91
24.54
22.38
20.44
18.60
16.81
15.10
13.62
12.49
11.65
10.88
9.81
8.08
5.48
2.06
-1.87
-5.93
-9.74
-13.14
-16.19
-19.18
-22.51
-26.55
-31.50
-37.19
-43.02
-47.88
-50.44
-49.49
-44.40
-35.37
-23.48
-10.38
2.25
13.11
21.52
27.37
30.94
32.65
32.90
32.09
30.59
28.72
26.73
24.78
22.86
20.93
18.92
16.88
14.90
13.16
11.84
10.99
10.44
9.88
8.88
7.07
4.31
0.74
-3.28
-7.31
-11.02
-14.39
-17.69
-21.37
-25.93
-31.59
-38.17
-44.93
-50.71
-54.09
-53.83
-49.24
-40.46
-28.49
-14.95
-1.57
10.24
19.66
26.54
31.14
33.88
35.11
35.05
33.90
31.91
29.40
26.76
24.27
22.01
19.93
17.92
15.97
14.17
12.73
11.77
11.18
10.60
9.53
7.50
4.36
0.28
-4.23
-8.65
-12.60
