56.67599137
65.19531867
61.63220503
63.76038558
61.90372312
63.30883567
62.92007452
63.23309893
64.03011386
63.63024889
63.00960728
63.42427223
63.43122618
63.12411962
62.82493962
62.40429173
63.46874983
63.08431064
63.19188712
63.2867979
62.57305106
62.28525224
62.86012775
63.21337035
62.77798989
63.4194666
63.45130023
63.48856959
62.73584002
63.47167826
63.19671321
63.54178149
63.13158836
62.73219821
63.00424275
62.99313236
62.60400654
62.73853892
63.63718261
62.70184051
63.45758101
63.06618877
62.97908373
62.91403567
63.46958576
62.9013141
63.02400044
63.50620711
63.10958187
62.55166551
62.75582288
63.56318838
63.3644296
63.30393163
63.14363622
62.36738927
63.125388
63.3106467
63.27243578
63.29427624
63.42687625
63.51743739
62.26746175
62.73167577
61.1503824
62.99971779
63.66798424
63.44303041
63.68666593
63.20605679
62.3257952
62.44358486
62.96000638
63.25081195
62.45346071
63.35667977
63.33242027
63.23190165
63.5065405
63.21625828
63.12792892
62.97438522
63.62274294
63.61949355
63.33877932
62.61259293
62.75526238
63.56009848
62.83471581
63.5050922
63.0815329
63.21982646
63.32125127
62.77764086
62.96262596
62.54863716
63.65339607
62.47429366
62.47629239
63.42259086
63.49378635
63.21443686
63.64575909
62.8637581
62.53207079
63.02610582
63.65900847
63.39219232
62.83767783
63.76925206
62.7334294
63.26584464
63.65941067
63.01354086
62.83537878
62.6592275
63.61921471
63.63474617
63.45242627
62.01933265
62.74519127
63.2138874
63.41870383
62.99241204
62.30036581
63.88309646
62.19804326
63.73689188
64.20884291
62.58465747
63.06639045
62.50041076
62.72665851
62.66731837
63.37743321
63.52828102
63.10245048
63.07133306
63.08367708
63.08452035
63.55624437
63.32322321
62.98701291
62.49408162
63.48466402
63.03165457
62.91758993
63.26781517
62.53970002
63.00607419
63.68021263
63.44729038
63.89637794
63.2474236
63.07750117
63.34409408
63.11377137
63.2964884
62.95028353
62.95320621
63.36413562
63.98945934
66.82586193
69.1307073
62.94427228
49.89974177
51.33000128
58.47222878
59.61393189
66.12630169
64.72758645
64.38352644
69.65225569
76.21246654
68.75205625
67.83212369
72.41492125
59.46686104
64.48798136
62.82471517
52.46904515
49.52666044
59.26435173
67.25267217
69.47612082
71.97499213
71.58567774
65.17519959
63.23925938
64.14418553
63.74595096
62.12282251
60.35579516
59.77821984
65.19022809
64.78999224
64.45361512
66.30790608
61.69079041
62.22824603
66.24629554
65.42104971
61.64461719
60.87265297
56.66784379
73.57402416
65.72413122
61.8011025
60.568041
60.60717843
70.20386148
63.55568286
63.01936628
63.37858377
61.9428367
60.06385899
63.88040462
63.78853716
63.02932818
63.89944259
63.22478549
63.64222268
63.42989864
64.78892475
65.25298543
61.72435289
63.82001659
57.49956072
63.21272848
66.01464593
63.68500175
63.51579092
64.07399115
63.59705848
63.88536082
61.89588916
63.86524603
63.56518309
62.59316733
63.26565617
60.78358571
63.25273995
63.23433865
63.55596042
62.49326275
63.03313907
63.48179688
62.03847472
64.22555403
62.42180351
62.09643477
63.76478875
62.95405314
63.57279853
64.71044666
63.84173568
67.71400593
64.54499314
59.50952952
60.7278302
69.48719347
66.93734991
74.16710522
76.97898427
67.54533845
59.80067247
59.51212695
55.24831338
58.55703513
62.63092605
61.76023575
58.00574238
57.72848822
58.78923422
61.57140188
63.43508642
68.0811983
71.55707928
64.66696839
63.90609166
63.11924233
60.87539292
68.16982078
68.48727207
61.22865894
61.14481808
63.33869405
64.44635377
63.52409482
62.90922951
70.44530391
59.27508443
56.00100775
59.32677449
66.0599691
63.87433225
63.22745059
65.95663088
70.75747737
72.66875562
67.43658786
68.91647346
57.09337114
60.14320831
60.42948223
56.28736397
60.85473617
63.523718
63.57448089
63.40330671
66.25530638
66.21981789
66.95191788
71.02258956
71.25556861
65.36118575
65.12892614
60.82819572
66.94841948
64.40383262
65.77566837
66.01560508
63.29827611
62.77197023
64.7724141
67.04364753
64.16455009
59.11512186
60.3011252
57.21443969
55.25683992
63.25694389
58.65312825
57.7046868
55.59786518
51.83649889
55.13169058
62.31653431
68.02623084
73.13289643
78.2625567
82.50675719
79.02207893
77.00186556
66.21443831
58.54500681
56.75958664
60.81394269
74.95823771
70.86597436
62.50882974
52.67439237
54.86500885
59.58919964
70.10908962
78.94846674
72.25469648
62.11108424
56.67607245
48.07341492
44.01575144
51.08437925
54.44524949
60.33680275
59.06905959
65.42977
65.55326447
64.55847365
82.05716265
72.4161768
66.06678558
63.68892428
66.94240528
61.77335168
63.11592779
64.17346605
63.63828908
64.55150027
64.62655031
64.03099388
64.41234172
63.7995878
65.03003113
64.08451703
63.2745592
63.07024456
63.67264637
63.97573944
63.58908906
63.15723542
63.31789634
64.26157384
63.70286472
63.93557719
63.85229998
63.89347994
63.38845604
63.37642813
63.43570619
63.4931097
63.27999821
63.57092556
63.69270045
63.33250893
63.32200611
63.69161103
63.60654439
63.26363857
63.48342947
63.32409517
63.55375283
63.70907524
63.77573541
64.22244589
63.16748821
63.93411742
64.4276293
63.64486391
63.92269843
63.81351259
63.87705502
63.13255753
63.35330607
63.65555583
63.61074431
63.67248433
64.05441678
63.22660642
63.60178773
64.04565486
63.56563774
63.6650436
63.84984633
63.22658909
63.85506389
64.46212245
63.40778443
63.49343687
63.968947
63.49439035
63.87160452
63.59510394
63.48994091
63.675855
63.2068432
64.0795624
63.7990634
63.99652493
63.07447082
63.59495159
63.5340148
64.33485506
63.85814701
63.66781743
63.96938717
63.66519205
63.88557555
64.91267867
64.53535717
69.27115178
72.76316266
75.50223616
73.69280193
65.65573023
59.06863884
55.90269427
50.81908513
50.74507267
51.54172227
56.87806533
58.14935726
56.17685603
67.68154742
65.2147807
70.0879389
76.5633594
58.60360019
64.86430941
62.3137168
64.46832837
63.54059837
63.18852082
62.39889899
62.96799296
64.51554307
63.51070048
64.00193006
64.00914559
63.03430656
63.80148627
63.4869246
63.70706068
63.02398961
63.26246319
63.78382983
64.08223057
63.78158878
63.46779377
63.37500238
63.30151509
63.18938556
62.93895689
63.28510933
64.34433518
63.17179588
63.22222661
64.21732546
63.544925
63.59129165
63.53838873
63.58351799
63.54302392
63.57608547
63.54214887
63.60558752
63.95300134
63.45852224
63.94423771
64.00686367
63.50623025
63.61320736
63.49318408
63.66626533
63.28667436
63.46880046
63.45707931
63.46340106
63.88097082
63.47477093
63.53541184
63.1950479
63.97510394
63.63098095
63.53001332
63.59976348
63.49886345
62.90706146
63.54139677
63.85100472
63.72419675
63.45708597
63.69883219
62.88374905
63.44104245
63.58598084
63.57708211
63.50281868
63.69184076
63.08050606
63.1776751
63.69083903
63.4868316
63.60996181
63.52796312
63.58452354
63.54085243
63.58458776
63.50435687
63.28147972
63.77945093
63.19304127
63.67035771
63.73237231
64.04111712
63.55486823
63.25613012
63.4773155
63.21827622
63.12657156
63.4951052
63.86006584
63.36541019
63.46127167
63.64615488
63.28961393
63.45425721
63.73258686
63.21241091
63.32767706
62.82201426
63.64938356
63.34855984
64.6210925
64.06177321
63.44024224
63.23573326
63.20890144
63.80603947
62.99141572
63.8864157
63.63616052
63.3428848
63.43087926
63.56787071
63.10306608
63.38163609
63.67140772
63.34377708
62.76211626
62.96247345
63.18763158
64.03866234
63.38216809
65.42819193
67.05257551
64.37595074
67.57456936
61.56411868
57.62548389
59.52524488
68.20793678
65.33192304
62.30116028
56.6278136
62.70974197
68.3944068
63.82636378
64.90758415
62.96311235
63.74647362
63.2421221
63.5117827
63.96826506
63.67707234
64.16520033
63.6435525
63.58316558
62.95711117
63.22233307
63.22701507
63.65188968
64.33821726
63.50102879
63.60273646
63.50797855
63.54853722
63.14531766
63.5842933
63.51068976
63.59285652
62.96412118
63.54610405
63.78195218
63.35095729
63.12233883
63.0259588
63.15421232
62.93659414
63.53074901
63.76949089
63.08165637
63.01845963
63.36972604
63.19111031
63.16568565
64.07820237
63.90578329
63.34695469
63.24598854
63.37196756
63.20644333
63.15966509
63.50204973
63.87284893
63.21859697
63.09736798
62.91908007
64.1267664
63.61661175
63.90637545
63.83842056
62.75619625
63.03521017
64.04162985
63.42362993
63.24252716
64.05831815
63.71004675
63.22688485
63.32880665
64.05170618
63.38594479
63.68439727
63.72052568
63.23243295
63.09321658
63.84265758
64.1066637
63.33760386
64.07001104
63.66153444
63.50347408
63.29757022
63.64928829
63.36458065
64.11326547
63.22525294
63.51483047
63.54127763
63.30699504
63.55826333
63.52915036
63.45901539
63.38905452
63.4955283
63.98352477
63.69195827
62.85738007
63.78166865
63.76531414
63.43722595
63.81790019
63.99893997
62.81733566
63.63169575
63.69181002
63.03859832
63.071604
64.29472976
63.25424401
63.5829189
63.41426288
63.79659554
64.09830905
63.61936564
63.57001228
63.41129695
62.97624659
63.7314324
63.69751871
63.8962292
64.31379896
63.70727728
63.50096683
63.39869266
62.87706489
63.00560377
63.63806879
63.21318218
63.69768292
63.41394431
63.80854718
63.93320868
63.31909833
63.71149531
62.89692019
63.54824075
63.45937416
63.67095434
63.08678395
63.2950265
63.57790056
63.72237938
64.6129491
63.51988413
63.37939527
63.01790163
63.0501522
63.22275497
63.51385086
64.23648202
64.3534868
62.8450119
63.50443782
63.05807944
63.37274425
64.63687452
63.75547131
63.02586244
63.25023485
63.37056371
62.90414705
63.88139442
64.08163591
63.16623714
63.32799898
63.34218416
63.19236705
63.52912048
63.25671883
63.78619462
63.62041946
63.4598181
64.1642602
63.12714727
63.37193281
63.34872921
63.05308648
63.36260799
63.8251971
63.28497324
63.26490019
63.43173164
63.41907531
63.47850819
64.6168282
63.69672253
62.88097442
63.79114717
63.69020007
62.7964234
63.52705665
64.67763547
63.24326228
63.25249631
63.70721681
62.88846156
63.24944801
64.46766303
64.09694823
62.98124943
64.53858977
63.84679774
63.0235533
62.97363641
63.9641162
63.72264036
63.88625381
64.0826749
62.9148322
63.11996435
63.70264128
63.63997251
63.58826011
64.41669525
63.19502439
63.05659496
63.05230946
63.44021802
63.12382682
63.80339673
63.66717537
63.25219655
63.67883798
63.24999763
63.58126147
63.18836894
63.35840453
63.28262148
63.59272365
63.09361284
63.70021189
63.10203447
63.20040517
63.43781742
64.09793878
63.82657325
63.34891422
63.04949067
63.36286725
63.60357042
63.48332125
63.5975834
63.45928091
63.66275597
63.21669945
63.45037562
63.38828394
63.53589163
64.08626408
63.4559251
64.22767268
62.97128748
63.08322835
63.76261303
63.56760481
63.73852372
63.83799984
62.90309382
63.48911738
63.76950841
63.48129635
63.537939
63.76617985
63.82209697
62.9662775
63.36281017
64.07861855
63.60095524
63.55196338
63.52534638
63.57910389
63.74967069
63.32435933
64.07547389
63.65573579
63.43284632
63.28260647
63.36127715
63.5024444
63.13313045
63.78124995
63.54216696
63.4454229
63.95168771
63.77885388
62.8329205
64.18551261
63.43495007
63.3515735
63.56067991
63.63514683
64.04469778
63.33921109
63.24250383
63.40501192
62.92834461
63.80738277
64.39627645
63.88607088
63.70418268
63.80958394
63.51418805
63.84160264
63.69657744
63.91851361
63.86429969
62.80124055
63.40211558
63.60183168
63.48547499
63.30657373
63.63911074
63.26507991
63.2727666
63.39720452
63.61576531
63.46394244
63.89762328
63.93021445
63.28358113
63.26988823
63.74172104
63.74469837
64.01904041
64.16310332
63.50841978
63.34749148
63.27769331
63.65842695
63.43539489
63.78405819
63.97181654
63.98731981
63.81611376
63.49396776
63.54028535
63.06808919
63.07461041
63.07648351
63.04829753
63.18430538
63.64822469
63.12492221
63.57366565
63.43689117
64.13964706
63.76961512
63.33938157
63.03887906
63.40069899
63.60198256
63.47279448
63.62182789
63.40809115
63.31766108
63.2350261
63.44801009
63.3728715
63.56754852
64.10830183
63.31129146
63.20487651
63.08298135
64.29893041
63.59847465
63.73695584
64.6290115
63.3470336
62.94666807
63.33291494
63.27690173
63.3514657
63.81226906
64.55157375
63.75433263
63.01362322
63.23604672
63.62938107
63.41549441
63.26772251
63.32914807
63.03766832
63.42450145
63.1941947
63.61809089
63.48217367
63.58911466
63.47866543
63.62285183
63.01365667
63.30589699
63.26232766
63.10997943
62.89965796
63.74727309
63.72395443
62.83329287
63.21913065
62.95788066
63.18590994
62.92184358
63.48120478
63.78466703
63.12552524
63.44186525
63.00645906
63.36500775
64.48112455
64.01136926
62.90101827
63.19189916
63.38562631
63.05596273
63.07343554
64.1894308
64.63052385
63.63692806
63.25576893
63.24586394
62.87849397
63.97192335
63.54181747
63.54839365
63.3026898
63.55795343
63.14230756
62.9251081
63.91106403
64.17736733
62.87195984
63.4535831
63.14009861
63.15440582
62.85731144
63.99107753
63.72805632
63.27321756
63.65274078
63.22663581
63.25289954
62.98477049
63.11323118
63.06192436
63.0756246
63.95633889
64.24879139
64.11722858
63.17215775
62.931965
64.07427904
63.73692613
63.28102852
63.07345644
63.37198848
63.19570934
62.87477312
64.13598625
64.30618642
63.1210528
63.643649
63.45352129
62.26200144
63.80074208
63.9918387
63.35177471
63.74817281
63.98089729
63.3654362
62.83299095
63.73296629
64.03879222
63.3125543
63.83589032
63.35238204
62.32227432
63.4874351
64.01412761
63.83300246
63.54862737
63.36322881
63.45335039
62.38186279
63.56914353
63.50677093
63.5603803
63.83805125
64.03533894
63.77340492
63.18491264
63.41506938
63.6418379
63.39090987
64.04829674
63.55383567
63.11987936
63.88128561
63.40214164
63.58727241
63.69146418
64.04179463
62.73732235
63.68535169
62.94923663
63.22386348
62.91366815
63.78945122
63.98035191
63.61016539
63.86787778
63.43341
63.07692807
63.5206601
63.59333883
63.58969096
63.77505277
63.79357352
63.03350528
62.9866157
63.55053915
63.51265522
62.8689668
64.21479251
63.06033586
63.12184254
63.59762438
63.95636885
63.77203754
63.73149796
63.70761009
63.44359769
63.63072437
63.17913823
63.79998932
63.52932608
63.50804108
63.56943826
63.52602416
63.54301099
63.75136616
63.77812751
63.57060497
63.30347451
63.53197469
63.70051255
63.56819543
63.49655576
63.81998511
63.71733214
63.59384601
63.45923787
63.69888901
63.64970316
62.9429625
63.77504951
63.21079687
63.56958121
63.5546608
63.48409137
63.04251293
63.0742417
63.40292853
63.62672488
63.41167355
64.18423161
63.31823443
62.92666922
63.38877701
63.52874429
63.66230868
64.56975689
63.84445823
63.38970759
63.22819458
63.5703338
63.52384513
63.16440908
63.61629604
63.22570877
63.06111402
63.55141683
63.55201695
63.24122508
63.3904244
63.67910851
63.15755691
63.48849203
63.43972244
64.00463541
63.93028236
63.4010392
63.6011419
63.52573128
63.21210084
63.4699357
63.57520308
63.29248563
62.9113382
63.9758411
63.94101356
63.57578209
64.07822491
64.01850048
63.61241527
63.10202503
64.0929918
63.19552093
63.26690612
63.58877771
64.11886876
62.78833335
63.60114609
63.4397854
63.66331215
63.11966271
63.24785185
64.23303676
63.36675845
63.68179348
63.74950499
63.65903962
63.11367733
63.28146258
64.04174835
62.98141811
63.0321314
63.75668787
63.95582696
63.14886409
63.40304358
64.16224413
63.38503101
64.24774614
63.55351475
63.18696918
63.38276961
62.94422386
63.66686009
63.24165107
63.36168896
64.25077489
62.98878751
63.15186699
63.25662483
63.9471135
63.80789428
63.27814381
63.17278558
63.19801339
63.33444059
63.34284498
63.13610084
63.21102882
63.37392328
63.23820549
63.37130758
63.22268492
63.42394034
63.07179838
63.27887999
63.26167978
64.00695633
63.24554773
62.96696797
63.15930897
63.33265767
63.27352553
63.51830436
63.63689424
64.09904428
63.15999837
63.42140154
63.15567382
63.63917705
64.03797917
63.44865178
64.25833669
62.87981064
63.46550958
63.44970677
63.23818402
63.51042413
63.63381882
63.3458104
64.05323538
63.63306948
63.07607842
64.1456767
63.9325636
63.68882465
62.85131455
63.76643657
63.13550589
63.46449812
63.51657601
63.6067991
63.18568567
63.17231027
64.29029402
63.15682072
63.1177747
63.40993755
63.05749443
63.28575568
63.41564805
63.96140637
63.24309089
63.29134392
63.02971962
63.62480629
63.48087155
63.58069
63.49588571
63.59863376
63.20909562
63.05651667
63.62372385
63.26932786
63.0212803
63.58152463
63.34375448
63.00630437
63.17163555
64.50569095
64.01850866
63.06835508
63.57195025
63.34537569
63.03803143
63.10598225
64.54084198
63.9529943
63.5088791
63.05359674
63.29569014
63.23565832
64.06073784
63.59550511
62.93493737
63.16884449
63.33808427
63.17651341
62.89845877
64.17193643
63.50393522
63.20224775
63.38113249
62.96957397
64.3595949
65.89977319
66.06764041
68.77931443
76.90752095
82.47981384
72.49101193
66.04177051
53.28776416
45.66022309
55.70580198
71.73016233
67.14425386
62.59887098
58.3856748
59.77475797
59.89929126
63.24161802
76.43700869
76.08184057
64.84828527
65.63446272
54.01966915
51.14725442
58.49574526
63.35631654
64.96488897
61.33470462
62.97015783
67.11144767
54.66184262
46.48753562
73.35672621
67.28203634
60.60495785
60.3454219
66.33249009
65.82947277
65.92977985
71.88778884
65.94776993
67.12810079
63.69735036
63.56717593
65.79398454
60.59652615
60.4990306
68.21445262
64.35186498
63.78136046
64.40447476
65.31370375
66.14489763
66.39975757
59.34971999
64.38979828
59.77241058
59.57058738
63.58798644
65.32890104
64.06017786
63.26853588
65.83247924
67.04854919
65.06859684
66.00089065
58.33661852
60.74014472
63.64901396
66.96137491
64.62845406
69.90716473
64.97766309
62.24718834
60.78896159
60.70428316
66.16798022
61.94769435
66.32534765
65.95508391
63.81078773
64.011443
69.59806307
62.17834651
61.46031103
60.90147865
60.71699256
60.09141557
63.70151003
64.13385648
62.78493084
64.96045684
65.56085951
64.64346534
63.27555497
62.61187047
63.78584456
64.8108404
61.12152662
61.0204771
64.48274606
63.92533243
65.1129544
65.97797655
64.03048369
64.14065906
63.64571341
63.17653594
65.26998909
59.75572256
68.21941891
68.23172329
63.89438409
80.58674834
57.57714699
74.35112171
65.28908217
56.08281603
67.9691035
59.85314652
62.36861156
64.47296315
61.97198387
61.32747773
68.92141991
59.95703317
62.47742275
58.74791132
55.96650641
58.26512731
69.24492148
64.72700308
72.86073675
70.40054611
59.06152842
62.81810643
64.97382128
72.04971618
66.94426444
63.27648108
70.38822281
68.78093444
60.01293241
59.49145399
58.56306872
58.21028173
67.13911018
62.57107202
65.03715479
64.5508651
60.64675805
62.59252514
63.45837843
60.91957755
66.35005382
67.08793011
64.96015366
66.61692291
61.2254157
62.68477051
63.36173917
63.34243669
62.35943847
64.15123235
59.94224533
65.96446929
65.09074082
64.61555228
65.60620366
66.90611967
62.91821063
65.51582403
61.14295449
61.15777648
65.92268402
64.57866133
61.49555089
59.40186793
56.70295822
64.9642536
65.36851352
63.84327128
57.18897154
61.60948359
64.17565555
66.99851368
81.2251378
66.80599001
64.1615012
57.23986717
66.64465988
74.48409043
71.21181535
68.4316217
66.90420612
62.27355742
62.22860419
66.39752117
66.94413969
62.94444314
65.41709142
62.81327789
61.87363864
58.10506784
62.4339158
59.34291855
62.02466505
59.7483527
65.74040996
62.26758583
58.08229061
66.42268527
60.34103522
62.45599409
65.27029894
58.52150185
58.89910505
68.47953379
65.82434025
62.75716569
61.32535965
64.71495655
65.74552827
65.06795792
66.44702915
57.13529826
60.22686217
63.83051956
67.62071131
65.44196799
64.18290643
66.29515657
64.13534985
58.29208882
63.67965831
59.95904287
61.82315626
64.77957207
60.28538543
63.35306219
64.44969177
61.32272879
62.83787737
64.03179295
63.7513927
62.71477623
63.63297868
65.38489487
64.22769433
63.317426
62.17319726
64.11348345
62.95211819
61.60510478
62.03921638
65.47795719
61.44798563
64.33473338
63.25580868
61.07990035
66.00034533
59.98673403
60.39017557
61.84944243
63.37640455
58.98554255
61.94349781
62.97923563
63.03597907
65.68220986
66.23126448
63.89304745
62.70727789
62.45640314
62.57688559
61.7430113
62.07681636
63.78828613
65.04430678
63.37434665
65.12513287
63.97846331
63.050393
62.91734504
62.00189622
63.74474744
64.85961303
62.48483436
64.665033
63.03531305
61.77006807
62.25163792
63.96532438
62.75991811
64.76732068
65.36036794
63.41535841
61.54333497
60.95482204
62.93072792
63.34128217
63.5372189
64.50150137
63.78709532
63.51909157
63.66844727
62.64103548
64.15075704
64.67437548
62.1036217
62.38761324
63.32164494
62.33607948
64.74253962
65.14585322
63.78964531
68.31614241
63.48515394
64.52788751
66.35446507
60.72196392
63.05932473
65.9338021
61.80069761
63.85877217
74.18607696
64.47661752
54.55915574
63.40625844
56.82631662
60.63314556
62.91147317
65.95945696
67.11823418
66.41602664
67.77795123
63.81626747
64.76883466
62.05043222
64.85428782
63.66201393
64.85517496
66.32678017
60.07363799
63.12439512
57.86192123
61.2437449
57.70133535
63.28427238
70.14223081
64.64325058
64.48326576
62.56517138
67.73256568
68.392559
63.36108553
63.3115432
61.12244981
60.85508204
65.56322363
66.19318987
64.35822375
63.10403019
59.42809764
59.8185756
58.4693717
57.15611038
67.84226455
71.70395285
68.51317724
63.49501635
62.54229162
54.80692627
47.0410727
40.58965275
42.25829769
50.92780294
52.03608031
56.05238838
90.32336618
90.77614098
101.1713083
86.46961888
66.09214187
63.56392
62.8934584
89.50216802
65.33134069
55.05475298
66.13983099
64.85009643
67.3200611
60.77003675
59.94550835
59.38180901
62.26455481
66.98285296
66.93984495
66.07568304
64.9336186
60.36689577
62.05497964
62.76658576
61.39402338
65.2372973
63.84286919
65.88400365
65.07841817
57.41415974
64.75559891
64.74013927
62.10622715
63.35271945
64.24630321
64.90928579
63.9931081
63.55205228
62.44027969
63.4823168
64.35236366
64.28021368
65.25843287
64.1298176
63.62534497
62.89888605
63.24536101
63.94200835
64.8652188
64.13210556
63.53121232
63.71386722
63.50215507
63.37214846
63.52913879
64.67868707
64.75497462
63.61826884
63.39882039
63.10120546
62.89843675
63.94495602
63.98879477
64.65783037
63.91797272
62.82061081
63.03125855
63.04250562
64.19270606
64.58824136
64.5502129
64.09230524
63.71536162
62.70007597
63.76750168
64.77950435
64.50748305
63.92292539
63.00678179
63.40106088
62.18677361
63.06808434
64.62280581
64.38517659
63.98068374
63.75103682
63.22303681
62.86500174
63.85250202
64.55526137
64.41879557
64.01035291
64.05931541
62.63669842
63.25428739
64.72623988
64.42098709
63.53325817
63.9665455
63.34737711
62.86083218
63.51756045
64.30566496
64.60005045
64.03287476
63.01561085
62.86893769
61.97137983
62.36732349
65.69922727
66.22305238
65.14784943
64.21589787
63.07956439
63.26853451
64.06460574
65.38041037
61.37923327
60.3931718
64.57315371
60.73209201
68.02775094
63.76144477
60.64961747
63.79780086
67.72954475
59.95415372
64.86368211
63.59138613
65.43646855
64.39007424
62.86690157
71.22279265
66.29258296
63.2198672
67.53672743
65.09771916
63.36768217
62.41476306
65.61384243
62.79087816
63.32880536
64.39137907
63.55936901
62.04676779
60.2286721
63.88166472
63.79365649
64.2013564
63.94702578
62.78391179
63.64550842
63.67272658
63.2716399
63.334933
63.13280336
63.55837925
64.8882865
64.21989126
64.00549724
63.33839431
63.82804554
64.56200284
64.48778039
63.89359071
63.58811192
63.05505459
63.40569303
63.89986193
63.94465985
63.96253108
63.26085622
63.10133806
63.80067698
63.82367504
64.31572219
64.39304948
63.59282234
63.75635069
62.82618188
63.04636339
63.94669584
64.97589544
64.24774886
63.97092611
63.18608334
62.59896366
63.05932839
64.20112951
64.95143363
64.39894503
64.04294067
63.6155577
62.87349001
62.96836005
63.91575921
64.88528317
64.52128455
63.36479225
62.66827151
62.22238028
63.75870316
64.41391326
64.82130486
64.55745735
63.434249
62.55497699
62.08002602
64.30661151
64.93397247
64.66275125
64.23188614
63.76359464
62.80152877
62.70728535
63.9010255
64.08937603
64.6530876
63.51959632
63.45001263
62.89167513
63.37411957
64.72304507
64.77324336
64.0582132
63.82678169
62.77243638
62.79729652
64.1109711
64.53569765
64.90801347
63.89128313
63.00921407
62.63995433
63.14481163
64.3816606
64.91238504
64.35015499
63.95454633
63.11581246
62.52214802
63.86253351
64.10141144
64.02214123
64.26722976
63.95943244
62.65241887
63.11162755
64.10875577
64.06214333
64.21158332
64.19400826
63.70158979
62.94006559
63.06875818
64.07560231
64.11038608
64.00415543
63.25882304
63.44054769
63.80332663
63.92119235
63.31103638
63.40166603
62.92469088
64.05460975
64.35755784
64.02990354
64.27009068
63.18966382
62.47003405
63.27865967
63.9395417
64.41518171
63.97418109
63.62938089
63.49613364
62.94313086
63.85080663
63.80055494
64.31296852
64.0859746
63.32723409
62.53165991
63.5407099
64.38060845
63.40303552
64.3127905
63.73503819
63.58507806
63.59014409
63.66808654
63.47576591
64.07093354
64.03155244
63.46050024
63.69232681
63.55480619
63.65087996
63.57245164
63.64283755
63.55610817
64.3154157
63.64103575
63.61207932
63.58515457
63.65711604
63.49525881
64.1696356
63.92523395
63.38157763
63.28289852
63.10328375
63.69252426
63.32158777
63.9202529
64.03252959
63.31955039
63.46329486
63.36383377
63.43671122
63.36164301
63.61302506
63.6314137
63.59710957
64.39089706
63.98669344
63.49130264
63.68072011
63.5559688
63.65947257
63.54897302
63.69411872
63.30007344
64.14602907
63.78236575
63.43728576
64.29232526
63.75951128
63.55013612
63.64273944
63.58489404
63.62658426
63.58935496
63.63026846
63.57535943
63.65741043
63.47826482
63.5930265
63.55243912
63.81784198
63.79161522
63.5813938
63.56785047
63.85641862
63.64769389
63.53911846
63.59924561
63.84600054
63.7544527
63.54106443
63.65719574
63.56448381
63.65867621
63.52297146
63.90320533
63.68705589
63.73082319
64.62040262
64.0056268
63.27431253
63.02616912
63.1217732
63.22685033
64.26689798
63.41337319
64.29731037
63.3584144
63.36587846
62.79107573
63.53539166
64.10087876
63.97220409
63.86370535
64.24239134
63.81709935
62.45950481
63.24626716
64.18587909
63.92744522
63.90344152
64.17511751
63.48312193
62.53199772
63.60055819
64.32554133
64.41648991
64.14221985
63.49302059
62.55752003
62.91409957
64.0184861
64.13918895
64.82690051
64.39237065
63.73473168
62.72903767
62.64371256
63.80817419
64.66771312
64.70380847
63.54830913
63.50469323
62.73920051
62.92735914
64.36916921
63.91361026
64.03203925
64.46078708
63.78187594
62.79107221
63.42040722
64.25303511
63.76434659
63.77982531
64.05507391
62.96107512
62.621297
64.09196776
64.31426353
64.85918745
64.13918318
64.03288981
63.01767017
63.25490098
63.61718701
64.70435734
64.62905619
64.16589271
63.3425369
62.52237772
63.82649408
64.24023462
64.72466546
64.26180811
63.42832209
63.25563931
63.08116917
63.5403247
64.22354449
63.94809302
64.07180289
63.55476994
63.10194279
63.25908892
64.05823428
64.32318897
63.72266259
63.96603215
63.44445808
62.59817401
62.93268916
63.57851437
64.68263512
64.62561845
63.48629296
63.48260757
62.75677155
63.65763642
63.90427443
64.04203856
63.91672039
63.089891
63.24471571
63.28984778
64.21837363
64.02725439
64.20045316
63.91648398
63.80131594
64.20382701
64.04034408
64.17457827
64.03138021
64.22282415
63.88437223
64.03500208
63.43292622
64.04787042
63.78224647
63.60436834
64.20781831
64.15916882
63.68622036
63.67237447
64.19408479
63.16306525
64.10152897
63.99481589
64.29820166
63.60203392
63.75555301
63.46927425
64.13100283
63.66230548
63.6910064
64.28884852
63.97671471
64.24797843
63.33513568
64.14706646
63.7429926
63.05985611
64.02102278
63.06230375
63.734057
64.18501486
64.0805558
64.11428427
64.12345929
64.06907046
64.20129553
63.64072901
63.64223978
63.69303608
63.59749687
63.74450707
64.12289971
63.86834878
63.71866476
63.61407868
64.42733923
63.55905339
63.76082629
64.07927983
63.40038513
63.44135599
63.76822811
64.17004559
64.17340941
63.58401169
63.77758476
64.24527894
64.02449235
64.17572932
63.75925303
64.14748298
64.06079003
64.18892717
63.94740076
63.99250432
63.9429407
63.82269998
63.46917387
64.25252645
63.42708905
63.65590921
64.18261699
64.06662056
64.13723801
64.08782235
64.13012743
64.08655098
64.15320197
63.88378253
63.00055564
63.99891552
63.16435921
63.57408635
64.19926185
63.81763889
63.88566077
63.09317292
63.27029351
63.15471725
63.35321066
64.05261887
63.7810399
64.17604524
63.70702915
63.05994041
63.70082436
64.12604777
64.52080189
64.88381566
64.24629504
63.54860182
62.33839733
63.37908048
63.89015638
64.28221864
64.51102303
63.72024889
63.47895996
63.04476462
63.03052028
64.02134165
64.77354076
64.16505598
64.15884399
63.10727186
63.23526452
63.98275264
64.09647513
64.38575967
63.81512654
63.73248063
62.42828069
63.5890938
64.00144887
64.33763671
63.81849429
64.24572898
62.77020752
62.66157575
63.70050201
64.66599441
64.56539205
63.83604153
63.71183556
62.4987174
63.20402156
64.13239901
64.51831687
63.71197563
63.20582762
62.89136886
63.34906271
63.41183739
64.57036931
64.13216101
63.59435438
64.21073632
62.75529794
63.43556086
64.01657601
64.03599903
64.83259481
64.00207467
63.09573003
62.50887794
63.07036989
64.18533412
64.722255
64.29619673
63.98272186
62.60716794
62.82543271
63.67946945
64.58841127
64.54767129
63.49795225
63.12357708
63.78649138
63.98886951
63.61390128
63.88567374
63.80346738
63.09703892
63.2916826
64.01450046
63.65083893
64.03393974
64.02505047
63.18200818
63.17637246
63.86255536
64.23879416
63.87423183
63.94377982
64.16796362
64.06022949
64.17104051
64.01583677
63.49567654
63.81368868
63.06356725
63.32831884
64.06227512
64.15312312
64.06225101
64.18620462
63.81758144
62.99808489
63.18720107
63.32039339
64.3367655
63.36938572
64.35439374
63.82212885
63.0968281
64.49926544
63.92281481
63.25572784
64.01696801
63.42148545
64.07423516
64.14133037
64.0612246
63.40971693
64.14382736
64.10879656
63.45302656
63.99712088
64.2600987
63.38811805
63.29245041
64.13294793
64.16796592
63.36738431
64.15921303
63.66329632
63.67525799
63.59437105
63.79861806
63.05461148
63.9724094
64.08541916
64.22654122
63.45494853
63.95531977
63.959852
63.02283989
63.8783964
63.5048614
63.81736068
63.05913334
63.33207963
64.05578289
64.18438928
63.50668301
63.84741391
64.3713726
63.3768869
64.04553456
64.15288245
63.55318777
63.66825007
63.78642276
64.32553408
63.57533805
63.06999149
63.47218613
63.81875639
63.02393353
64.07466937
63.93441063
62.97779359
64.02387203
63.90991462
63.47232869
64.25368672
64.0287816
64.16289295
64.08560552
63.90958472
63.11583224
63.52481819
64.21396518
64.04473805
64.16748331
64.04506752
64.20216587
63.90968774
63.47463999
64.2043764
64.07790804
64.10316664
64.17252611
63.55358693
63.7344919
63.53703245
64.15979852
64.09299436
64.12129207
64.09476396
64.12732775
64.08230107
64.14894057
64.0552793
64.2041421
63.88755351
63.48694161
64.21461631
64.06992377
64.10838242
64.17078471
63.51911456
63.84219554
64.32785543
63.51359498
63.23040202
63.96288834
64.57055051
64.55566945
63.22615395
63.1531575
63.63333206
64.2469862
63.66269011
63.80142989
63.40493239
63.40270357
63.42669139
63.36540159
63.55125866
63.75368516
63.81841918
64.19739895
63.42197078
63.24206779
63.63474983
63.97334613
63.61922704
64.289456
63.54966867
63.40576509
62.76246261
63.62382545
63.66524708
64.56293283
63.831658
63.20670687
62.78550191
63.35233734
63.94484672
64.23465653
64.06135418
63.88887268
63.09088079
63.12510167
64.4438302
64.11339689
64.30979722
64.17145937
63.40475756
63.06351386
63.41783048
64.11408471
64.4272779
63.86191043
63.97532528
62.59976964
63.03789165
63.98218755
63.96547701
64.30221551
63.91314607
63.75099222
62.8847487
63.49620225
63.40518618
64.77084395
63.89981592
63.78531117
62.6005848
63.10379244
63.82241347
64.12132552
64.7301011
63.93723932
63.87311571
63.01379991
63.57029821
64.17108332
63.91670058
63.85747771
63.5387528
63.02971198
63.13950629
64.11746592
64.26439589
64.44227142
64.03012966
63.58341031
62.54688526
63.07234193
63.89668636
64.895798
63.8320614
63.43394721
63.48897925
62.74488202
64.08740892
63.79479776
63.66191776
63.95476201
63.79893529
63.54708232
63.51028465
64.79705557
64.04543849
63.71206009
64.04800022
62.98607408
62.45727075
64.14488886
64.52586363
63.45287516
64.33042807
63.4862813
62.33703869
63.2385203
64.02138457
63.67393748
63.98523847
63.41317404
63.10378508
62.71187038
64.16755472
64.35176838
63.89363582
63.62649532
63.24948498
62.87204796
63.96687705
63.90357339
64.42513752
64.1774808
63.66835302
63.50647746
63.74335036
64.2208851
63.73337597
63.88410195
63.70522776
63.12562623
63.61163326
63.97097254
63.69842861
63.77559081
63.91384711
63.31265024
63.66449832
63.48361104
64.07705261
64.15201207
64.04032521
63.52962412
63.72296474
63.60614846
64.25857371
64.02684352
64.16137306
64.08343008
63.41062259
63.02971395
63.74230961
64.02477254
63.34452249
64.17681
64.09515448
63.32735787
63.83842336
64.30972038
63.34120934
64.11308465
63.73890551
63.61294232
64.26762723
63.93128637
62.9364193
63.85298394
63.467287
63.48599204
63.79368368
62.96347482
63.49328698
64.0888134
64.16216317
63.52772508
64.20033016
63.63231071
63.65767872
63.66813555
63.63672821
63.68055689
64.242011
64.03439678
64.14085
63.2861053
63.86394944
64.16667298
63.54774795
63.1751377
64.09748406
64.17663182
63.42320258
62.934547
64.4097676
63.31892939
63.8828378
63.96833065
63.42613718
64.2566362
63.10975584
63.50373087
64.17322788
63.98869451
64.05611575
64.1973909
63.57838824
62.9361363
63.43301261
64.26464552
63.32983266
63.01131656
64.38088897
63.32782335
63.85799786
64.1485886
64.17965941
63.47146181
63.94087324
64.1371615
64.17352561
63.3891119
64.10023367
63.51324927
63.57553233
64.32975255
63.90180963
64.16884231
63.31698683
63.87024246
63.10523278
63.75797729
64.20385418
64.06216569
64.14123434
64.0923593
64.11715084
64.10301575
64.11353605
64.10520185
64.11319989
64.10692874
64.11446901
64.09946259
64.11866306
64.0974762
64.13057451
64.05738248
63.99910155
64.13656068
64.09273969
64.11706864
64.11102055
64.1057397
64.12210759
64.08332064
64.15343946
63.91731835
64.2235483
63.62862744
63.68046562
64.3625824
63.63548485
63.65693635
64.24243335
63.05920656
63.65230444
64.18024196
63.69306148
64.10125179
64.1596229
63.45847671
63.87666132
63.09185949
63.79234347
63.82868897
64.00423334
64.18870396
63.2440973
63.42916426
63.8795959
63.9067413
63.79180506
63.87977524
63.68835826
63.66520592
63.41510427
63.41675998
64.03705257
63.72812875
63.9006713
63.72404895
63.12075223
63.51679593
63.67838082
63.95272737
64.27475116
63.96992017
63.36084798
63.50088271
63.54815991
63.35784605
63.72810301
64.34377909
64.28898267
63.85004091
63.51642009
63.85341319
64.5025788
64.61456404
64.0273296
64.05713698
63.4060461
63.41850775
63.97080903
63.72465992
63.9347091
63.51288801
63.89720703
62.91559128
63.35286307
63.52646934
64.22478842
63.94049815
64.88198393
64.31864559
62.74152333
63.1389249
64.5307294
64.55901512
63.16152821
62.54437826
62.73372593
62.58605571
63.90136924
63.55670474
63.27462938
63.78885094
63.72647519
63.64966757
63.60216879
64.1758317
63.89094188
63.40010073
63.56511218
64.45530242
64.12451035
64.05833645
64.30040896
64.81666407
64.25890867
63.49580562
64.07599243
63.32348755
61.4573019
63.0228782
63.59349471
64.16532761
63.69211579
63.69037609
63.99060226
64.09723053
62.58037415
64.374677
66.96238248
63.25668571
63.64287374
64.09940019
63.71727533
63.72351463
63.29977649
63.71996297
63.5851139
62.90835377
63.85448107
64.23306037
63.58168486
63.5415869
63.73806308
63.94163427
63.62174719
63.42258227
63.84972876
63.76534908
63.72882649
62.88325188
63.25089633
63.96643227
63.92055428
63.37531102
63.24062693
65.89949371
64.77942255
62.16819788
64.08058937
62.83114048
64.12571462
63.53611986
63.40841183
61.46815811
63.29916987
66.97353908
67.3646981
59.87983801
64.00941015
64.17225625
67.4773599
61.64840999
60.57221634
63.08904121
59.67578261
60.02693838
63.83394389
64.52277467
62.66411498
65.12743292
61.62666941
61.93040784
64.6355938
61.05063661
66.43828209
66.27837257
66.88864305
67.52558832
63.45115295
60.24036309
65.97372407
62.11865296
58.66005466
65.23732747
64.87589765
65.70331451
68.9559543
61.59228273
57.27574654
64.29639269
66.25008367
64.90151635
62.5223332
61.96115335
64.47391981
65.88516859
64.01336939
63.19619762
63.31824852
64.0307117
63.5178864
62.99327659
62.41695937
63.19404158
63.57403927
63.87908567
63.93759612
63.90028234
63.92594402
63.68262458
63.33129243
63.70431453
62.91566292
63.24282972
64.64618109
63.5246717
62.85539193
64.2610254
64.58215085
63.23686659
61.91672667
63.12832015
63.09351043
64.31351865
63.96163645
63.80826137
65.4755443
63.72872002
62.53035457
62.33643064
63.77465985
63.3634281
63.94554594
65.00407137
64.0484627
62.76977356
63.00409939
65.10441622
64.75536366
63.08495131
62.79052268
63.53520056
64.14591742
63.45001667
63.25667236
63.81799674
63.72562233
62.94612167
64.42030385
63.66334813
63.84699833
63.90023012
62.95529638
63.93477209
64.15938944
63.73327628
63.26972162
64.08261517
62.86645365
63.62452125
63.81254609
64.3203359
63.17456583
63.97630266
63.64622257
63.02276849
63.64102486
63.63084039
63.08032194
62.37096429
64.86176379
64.33826381
63.08386811
62.22189009
63.47388485
64.64381198
63.61040342
63.2861605
63.26981655
63.00232511
64.00427405
62.99287799
63.75988247
63.91988607
65.18956906
64.93243476
62.83153342
63.03979114
63.14082277
63.86256194
62.60260077
62.36296474
62.98399133
64.05586919
64.96152923
65.73316132
63.68560857
62.84909542
63.18037309
63.78554515
64.01327785
64.10365507
63.55291736
63.18358774
63.52438924
63.43866212
63.44539096
64.04236515
63.88242181
64.07361539
63.75759722
62.82482226
63.09002633
63.4527332
64.64732747
63.56388206
63.34148112
63.35746843
62.67780247
62.91834793
64.20546545
64.87542515
63.98682303
63.30877984
63.15153003
63.57831722
63.49627185
64.54629871
64.79753069
64.05520724
63.32598976
63.25950524
63.49687361
64.0237738
64.05200825
64.11519389
63.59902765
63.72798977
63.64959641
62.81628795
64.36175961
64.46169523
63.79474333
63.77681128
63.43414693
62.74513327
62.91285746
64.46736956
63.70749247
63.36585512
63.68735458
63.31685175
62.76518987
64.44580429
64.05779329
64.39010385
63.81097271
63.52586214
63.14180132
63.37897913
64.57386507
63.76614501
63.74671904
63.95621494
63.11261542
62.43205595
64.27067798
64.67484612
63.83370942
63.97592808
63.31691991
63.12843298
63.44047152
64.52121592
64.33562549
63.49010233
64.10310401
63.28648879
63.12883951
63.1649049
64.17767431
63.76961095
63.98022504
63.53978858
63.12233368
62.84063284
63.06612572
64.07670245
63.50328927
64.07211896
63.44627957
62.79188752
63.17463428
63.21810115
64.44459052
64.03863229
63.79814933
63.42638754
63.18093802
62.69597591
63.71360823
64.17647372
63.30070013
63.4572198
63.20223846
63.10257648
63.14878856
63.5881722
64.15755017
63.84310621
63.55387179
63.22520322
63.09969794
64.00968723
63.81687674
63.69039323
63.97740381
63.25630579
63.0684572
63.74560612
64.1267319
64.39873049
64.14385327
63.47664225
63.67202786
63.06771005
63.66003487
63.95999261
63.56913475
64.03767379
63.4379467
63.06587143
63.44928139
64.10775749
63.87949103
63.84829205
63.50516896
63.23742006
63.64088103
63.49655429
63.8375207
64.13364643
63.15845295
63.64351435
63.70681693
63.34952591
63.27875406
63.72496307
64.48394592
63.46754004
63.59907269
63.22392869
63.42294903
63.57429116
64.08203998
64.02337095
63.34656146
63.02665823
62.91040104
63.52326053
64.44706046
63.9272424
63.84897672
63.62234671
63.22891052
62.77409197
63.74550422
64.43862848
64.70466524
63.88290685
63.63308842
63.22086454
63.22352615
64.01746949
63.55118174
64.00255799
63.23072761
63.67750366
63.23984838
63.23239056
63.70196523
63.91583817
63.71559056
63.59205691
63.36986493
63.4468686
63.75954866
63.84467772
63.65395822
63.30657881
62.9657443
63.65627092
64.22490817
63.62123125
64.21620967
63.5534701
63.43696931
63.11460116
63.48285326
63.87063884
64.37007663
63.28948249
63.27683047
63.40216333
62.69207128
64.22583539
63.73318906
64.01184855
63.49818538
63.32470017
63.34962299
63.40507064
64.42497758
64.49752786
63.32553069
63.54085681
63.35549553
62.45311242
63.85780622
63.68019343
63.85369637
64.24579953
63.44046943
62.78673549
63.35211252
64.02675917
64.01396533
64.18164112
63.43058563
63.47896185
63.47536345
63.45033599
64.67659865
63.84185846
63.30918072
63.59127772
63.62362826
63.39511913
63.53945185
64.20534216
63.94486659
63.55697723
63.63387524
63.16780581
63.36921641
64.28521125
64.10287804
63.58992753
63.64550346
63.26843619
63.83318619
64.11390615
64.08446275
63.7469172
63.57651689
63.92506411
63.68108265
64.28768883
63.71707028
63.58134606
63.61075375
63.02138377
63.56304917
63.55227545
63.57834569
63.2633315
63.45629877
63.08968665
63.22945828
63.96898614
63.34569758
63.35966885
63.71604282
63.3271948
63.43276162
63.24747469
63.66935722
63.79100712
62.96196372
63.36439977
63.81095068
63.01608213
63.84665606
63.30090145
63.0305353
63.72992031
63.48979714
62.88248924
63.81078265
63.36242142
63.32621355
63.7160619
63.59644592
63.51136984
63.00402819
63.24870679
63.1053627
63.18463105
63.14741528
63.1491034
63.449249
63.23883293
63.07186128
63.47934888
63.52281206
63.27275497
63.60627304
63.59269424
63.12827815
63.35277781
63.35741991
63.41709572
63.66764277
63.50384166
63.6635044
63.42713209
63.35243537
63.36176606
63.11940382
63.13827742
63.35359076
63.37074114
63.37686919
63.31653381
63.62849283
63.25946198
63.48137621
63.098903
63.23787112
63.01943318
63.53051931
63.67168622
63.03803361
63.19997665
63.16373072
63.09492925
63.92690983
63.05626807
63.68847177
63.48807416
63.09720172
63.08632288
63.71558722
64.03402096
63.41876017
63.75061341
63.03038856
63.89140745
63.20067083
63.0237359
63.99624971
63.78861499
63.56867789
63.56076874
63.16826425
64.28180079
62.86262537
63.42607918
63.60629808
63.66913313
63.4901881
63.86661571
63.9032421
63.37160758
64.36569251
63.7059586
63.5702589
63.66282632
62.93642752
63.47158936
64.03165159
64.16051413
63.83374115
63.50597268
63.69334061
62.97843325
63.281022
63.02357799
63.75663804
64.13022895
62.95812811
63.75460241
63.45066682
63.08364682
63.13776172
63.6525229
63.59584885
63.62497116
63.57497935
64.16665867
63.21683713
63.08276836
63.64457611
64.46850176
63.15370501
63.91636225
63.72224947
63.22417551
63.02512174
63.7274389
63.7286119
64.08111221
63.68234656
63.32139063
63.34671537
64.10459614
63.63414781
63.03090436
63.2629275
63.61922597
63.30468157
63.80730054
64.25008643
63.56254795
63.34871992
62.96205116
63.51812297
63.86489777
63.51359144
63.1790524
63.08218807
63.63562001
64.01665194
63.92514127
63.85254673
63.51084963
63.26683267
62.78792419
63.78416671
63.83765659
63.43361628
63.34413628
63.6362902
62.76716036
63.88182682
63.81294754
63.92383757
63.14248625
63.36986693
63.57986745
63.334905
63.95152367
63.62758722
63.89242102
63.39650939
63.1410079
63.13081801
64.18049052
63.58967899
64.01041492
63.35526814
63.54411121
63.51801256
63.94642782
63.68579739
63.97082317
63.57074046
63.41587015
63.50621664
63.44253049
63.99936574
63.49756012
64.26391752
63.53514418
63.38854229
63.66891307
64.1149596
63.8034473
63.95211193
63.9929063
62.79023427
62.98932776
63.24953025
63.65806229
63.6650269
63.91405706
63.71365561
63.28538671
63.7109253
63.85267261
63.52275194
63.97567098
63.44299029
63.41047512
63.8385883
63.86377343
63.94548817
63.90232413
63.79669268
63.589952
63.45811717
63.35692822
63.62742906
64.42956571
63.89680454
63.23872182
63.66197692
63.96616153
64.01167593
63.55481003
63.99764849
63.23833823
63.66590676
63.25765972
63.57235777
63.67105461
63.83861383
63.85773635
63.26667282
62.99238012
63.92090913
63.88424616
63.69863454
63.57202044
63.61555454
62.89871426
63.5866153
64.07761145
63.50320339
63.63392817
63.64242518
63.51910302
63.09301029
63.08177916
63.71517983
63.42690824
63.214298
64.17713248
64.0392787
63.3084422
63.11820237
63.15339617
63.2250352
63.788961
63.44043806
64.22494289
63.26486523
63.21756129
64.56286797
63.39704002
63.35178867
63.67317459
63.66220073
63.39861307
63.30061527
63.83036504
62.94599745
63.33468917
64.0946941
63.65118334
62.93420455
63.49652349
63.70219519
63.06669837
63.21291134
64.18850948
63.52802214
63.72674093
64.11875734
62.87987152
63.87512833
63.33348546
64.13465503
63.59120878
63.63842582
63.53554414
63.93392744
64.22799578
63.23134347
64.19986093
63.51470957
63.77286248
63.96169588
63.44586909
63.69829083
63.57643091
63.57646163
63.95178083
64.21299206
63.80010185
63.56982286
63.58409471
63.72232291
64.15438539
64.0875727
63.53449792
63.6917154
63.45427211
64.18582979
63.39658129
63.90933726
64.12253603
64.03363564
64.07233445
64.06648639
64.04596003
64.09698497
64.00195461
64.17741099
63.53530625
63.66417025
63.52435502
63.98171759
64.19983247
63.79966798
63.5833398
63.55432825
63.78214172
63.97128589
63.35486489
64.26929543
63.25927499
63.06344697
63.62060004
63.6177749
63.60626154
63.5790702
64.04220358
64.18173159
63.72289747
63.5879528
63.56801058
63.74239057
63.16083699
63.58039855
64.21753203
63.0478822
63.52671336
64.22127947
63.17620785
63.37866516
64.21394119
63.3920484
63.02304315
63.51768088
64.17601673
63.31780752
63.02398932
63.65145119
63.58327086
62.90649477
63.62361106
63.62255701
63.0058098
64.23963689
63.55126184
63.65382111
63.55534407
63.70570021
63.11787912
63.16041851
63.67694349
63.59255985
63.98851556
63.27091492
63.24092264
63.60297183
63.91171444
63.7321358
63.64479386
63.65727567
63.34361652
63.33094204
63.61640445
63.87145715
64.10877892
64.5814631
63.44276945
62.77626138
63.07975705
63.41008512
64.33582036
63.96756864
63.15221908
63.45127974
64.10614143
62.77052521
63.27301873
64.39800787
63.44546404
63.86224431
63.39143327
63.07452511
63.60806675
64.67348166
64.37020962
64.01007988
64.07337809
63.06616515
62.90435847
63.75510226
63.44950637
63.49556272
63.34454302
62.97506982
62.81930774
63.58049103
64.39180598
64.5057368
64.27966363
64.0526871
63.4218976
62.6023251
63.75687469
63.56672031
63.45686599
63.41592722
63.36725601
62.88935559
63.21292587
64.21001824
64.13407549
63.84035909
63.70704023
62.71741264
63.43826869
64.00924214
64.50716512
63.62909327
63.28124507
63.48764408
62.59646865
63.95245594
64.57119996
63.85780351
63.57740069
63.3283064
63.38290129
63.10865977
63.79770974
63.61086352
64.00745974
63.27286721
62.54999504
63.11043967
64.06094176
63.43344213
63.95760125
63.60395304
63.08693065
63.16489655
63.28227105
63.77294197
63.57424685
64.19978774
63.60154066
63.3848902
63.79759145
63.45305674
63.13175485
63.1914968
63.9692655
63.60032647
63.9408882
63.40493874
63.99527847
64.15129388
63.40605054
63.51822751
63.796661
63.26358408
63.60894127
63.92146602
62.96634918
63.85146233
63.79198092
64.04387279
64.09485611
63.74345386
63.62401263
63.45261267
63.00312156
63.44694377
64.40293661
63.59820067
64.15034955
64.03868293
62.58881298
63.06026235
64.65737228
63.58451316
63.7313948
63.59926162
63.5217833
63.59775009
63.83461747
63.53430607
63.68897975
64.44549193
63.03073627
63.4187458
63.76327852
63.03638723
63.54563963
64.0235754
63.27350503
63.71927366
64.21450431
63.7614875
63.02375688
63.87718538
64.13154771
64.00105466
64.14002755
63.9471891
64.25641843
63.44218253
63.85025611
63.91241692
63.43139001
63.98717805
63.15364161
63.11034972
63.56707464
64.17702731
64.01689249
64.06103197
64.12119475
63.31963909
63.18149585
63.88628825
64.12828846
63.17886043
62.90367204
64.07455943
63.91283893
63.4972789
63.6876006
63.34877673
63.5114397
63.66219539
63.74595239
63.26290615
63.13679474
63.1510329
63.39208967
64.47151794
63.60153834
63.93153478
63.48624239
63.35566204
63.33705034
63.81330777
63.62832189
63.80945114
63.8776932
63.28891403
63.04782615
64.14001309
64.21247405
63.54858138
63.9825112
63.0057782
63.2756194
63.41801599
64.21198709
64.08458512
63.88786572
63.22921113
63.31466572
63.70344725
63.47490677
64.40525682
63.78790964
63.59253919
62.89173678
63.62450707
63.83490398
63.68020894
63.50354249
63.349115
63.3346151
63.1611942
63.6529679
64.00571514
63.96889266
63.40689024
63.37856348
63.55332026
64.03874188
63.93831562
63.67581883
63.58004334
63.40763343
63.10121463
63.43494951
63.9343531
63.5274531
63.76806539
63.29864294
63.37844328
62.77345951
63.49332652
63.75305116
64.43363409
64.04498136
63.80439538
63.38650253
63.48018421
63.9673325
63.5117358
63.87711505
63.68168515
63.26972245
63.78209081
63.83744186
64.24994291
64.03029771
62.99118682
63.44453952
63.28443674
63.20141789
63.57382675
64.1194268
64.35582747
63.13218247
63.72765842
63.20854339
63.88966426
63.66322043
63.87220426
63.56258672
63.26826305
63.53664826
63.93168069
63.53637284
63.85412666
63.71835805
63.01256408
63.62626449
63.96975039
63.59366007
63.74807061
63.8432554
63.26161819
63.66851265
63.20730763
63.6858216
63.62199527
63.94623126
63.33991868
63.4393138
63.07045673
63.60600985
63.63314432
63.84928727
64.08785074
63.68011932
63.35712555
63.49577562
63.74694787
63.67849265
63.44377148
63.34874986
63.68680419
63.98743388
63.44383142
63.65752814
63.87158696
63.18050434
62.8346905
63.07290679
63.62184566
63.33977826
63.83177839
63.7714736
63.37604969
63.32170995
63.52669636
63.68806725
63.70322348
63.30480693
63.15238872
63.07736931
63.66333083
63.87209908
63.59921113
64.24959033
63.41182364
63.7871598
63.29735559
63.90472221
64.08484592
64.07419768
64.01822626
64.1607939
63.21864743
63.37091682
64.12500948
64.09211008
63.88688024
63.40024319
64.20864502
63.97657789
64.12540644
64.00753181
64.13135699
63.19935979
63.356836
64.28486186
63.25975405
64.11246937
63.65815928
63.55077959
64.35265254
63.58992009
63.64005065
64.09077945
64.16439573
63.62007313
63.63866156
64.14308103
64.11846588
63.60168808
63.65088421
64.23890745
63.93037694
64.19579528
63.8674349
63.5178198
63.66895774
63.36703739
63.35659007
62.99754306
63.66813961
64.20328198
63.81098819
63.40516037
64.32149993
63.06104595
63.55969825
63.59820512
63.69526067
64.20449505
63.99115786
63.93031718
63.10100784
63.39272238
64.15790316
63.99493474
64.14463673
63.85838057
63.87067383
64.07606431
63.25568106
64.32765358
63.06014338
63.84430006
64.12580728
64.06275629
63.76208155
64.05252271
63.8962459
63.83816335
64.17126533
63.89449876
63.80485199
64.19469433
63.47832725
63.4861675
64.16427367
64.02661147
64.01164335
63.5772984
63.95975381
63.78107055
64.03123184
64.12560066
63.68236129
63.74274473
63.35415767
63.70485965
63.47997724
63.97850379
64.14711251
63.70693032
63.72503533
64.01115222
63.21931292
63.62611639
64.06652924
64.10555495
63.74941195
63.63586687
62.88034131
63.28205524
64.03650871
63.75923227
63.94368391
63.78598905
64.28630456
63.59117218
63.47679321
62.97925016
63.71014255
63.91497893
63.87096379
64.06877101
63.72465669
64.14434889
64.01374932
63.73152958
64.17147019
63.46453673
63.76769517
63.88531294
63.86607615
63.83809245
63.92208193
63.64623949
63.37570621
64.04486466
64.12576406
63.65526702
63.30533037
64.28712841
63.56374687
63.66975038
64.10246983
64.15181513
63.58870603
63.66804301
64.17587636
64.04274894
63.86029434
63.89578125
64.13413112
64.01914571
64.09286414
64.03749167
64.08129644
64.04826651
64.08751692
63.99088383
63.72570083
64.23403011
63.19188698
63.88598126
63.5824655
63.68247748
64.19905327
63.98324166
64.12108086
63.72996438
63.06927043
63.55227489
64.17976457
63.95218517
63.68877858
63.62125518
63.96426367
64.10448936
64.07941378
66.29545344
69.21645935
70.09436425
72.64807094
78.53074257
82.94710798
77.08687146
75.98883069
72.11137532
65.20220911
54.92537213
46.41508716
43.72458464
41.47172391
46.67179128
49.06057936
60.60486454
67.16597829
61.45557628
64.78372319
63.76463283
64.25721665
63.02867084
61.55525975
62.67241317
61.77215099
61.75499615
62.37074023
61.64076592
61.11162008
63.62873241
61.53845798
63.32066227
63.15328248
62.16357998
63.14524456
61.36095793
63.19504524
63.33943391
62.73108438
63.32328256
62.11984726
62.27031479
61.48292738
60.97910216
62.19865401
62.31531845
61.98509935
61.72929111
62.4900373
62.50954235
62.81175274
62.55086999
61.83934854
62.05390299
62.44572662
61.93171034
62.44634552
62.67094066
62.83084781
62.00562912
61.80543142
61.76830842
61.73232652
62.42062137
62.34099306
61.92685884
61.89061591
62.37676114
61.89463783
62.1549808
62.64523756
62.1314479
62.22128519
62.11515065
61.81322833
62.45664199
62.57360278
62.07189228
62.17862161
61.76093072
61.90527126
62.15073287
63.22266989
63.05651054
61.76352864
61.79245972
62.06268142
62.18530046
62.43924903
62.6691213
61.97927885
61.86869847
62.07464345
61.73482288
62.21772457
62.75039798
62.28957749
62.06103761
62.5449823
62.31112766
62.11917202
62.2403159
62.42473066
62.09214928
61.74875006
62.49927046
62.59657561
62.39606099
62.37994425
62.10036027
61.87572756
61.55469204
62.10484848
62.68088427
61.90938526
62.13136678
62.17928887
61.85423904
61.64483411
62.09984483
62.45622567
62.43443823
62.60978359
61.91762813
61.6116843
62.2253017
62.61422179
62.44068787
62.02974193
61.8235353
61.92566444
61.84302738
61.89115357
62.13269159
62.24156965
61.97876027
62.55450757
62.53378087
62.71502212
62.26099782
61.51993052
61.97441196
62.01863725
61.99581571
63.21473368
62.27802432
61.80544532
62.24814649
61.73435221
61.96142786
62.32717764
62.77882674
62.40607581
61.75642577
61.6220439
62.16042047
62.44739237
62.63150534
62.00962462
61.59988291
61.73277847
61.96561359
62.46897846
62.56662587
62.30297209
61.47177963
62.00343558
62.21153487
62.48173091
62.19678486
62.01400751
61.761133
61.79327903
62.1170429
62.17191954
63.17821574
62.33108726
61.91027451
61.50656959
62.40236766
62.39251945
62.11034037
62.69996996
61.83816928
62.31866675
61.75351198
62.15314547
62.7841322
62.66070531
62.34216831
61.91079192
62.32894456
62.40540459
62.0699536
62.80784989
62.57734547
62.82956476
61.85335182
61.67007198
62.14989225
62.68762659
62.39019987
62.24186663
62.2431547
62.46792957
62.81937029
62.59845169
61.81248753
62.13858927
61.65252601
62.21560527
61.96289257
62.70326503
62.76646462
61.92379258
61.56347253
62.82322954
62.65141053
61.97990677
61.83228463
61.85237104
61.89708979
61.76943634
62.22278883
62.7547484
62.09965796
62.30681041
61.34259892
62.17918721
62.14286752
61.89552175
62.33251793
61.69355251
61.94973328
61.81846207
61.87258591
61.90361974
62.47520097
62.41857944
61.90762575
62.71932221
62.21506697
62.14193514
62.36632605
62.09458653
61.96377229
61.94929572
61.9371747
62.34929125
62.41882164
62.07520492
62.45787269
62.21925375
61.70804852
62.05323676
61.7319874
61.6956304
62.3410114
61.93104307
61.64977351
61.73684471
62.70280692
61.91293721
62.00454079
62.90629472
61.67761211
62.28743675
62.76868027
62.56123467
61.84839928
61.84743478
61.89749887
62.36759951
62.57537031
62.71262167
62.56213638
62.21610557
62.14843797
62.50584285
61.99592726
62.46119835
62.51498285
62.30431987
62.19507198
62.29335039
62.29518077
61.71349743
62.68678753
62.41914834
61.64338156
62.11398768
62.15638626
62.07863947
62.70365502
62.43495881
61.87303631
62.62076169
61.89352232
61.84915829
61.88116496
62.26331334
61.78746704
61.80121031
62.37152053
62.48530866
62.58179392
62.08297786
62.38432265
62.22539694
61.33012679
62.50897076
61.9617595
62.24058851
62.2929829
62.25475348
62.26863231
62.37781077
62.16246934
61.97767496
61.84223546
61.6988358
61.94401243
62.54370888
63.05246257
62.17348868
62.28480098
62.30509066
62.20635102
62.27045515
62.61712813
62.43823693
61.77738119
61.67429872
62.21473027
62.13935677
61.76090765
61.60598444
62.21621481
62.69166151
61.75816086
61.5523006
62.95114669
62.17708863
62.25154608
62.10933464
61.79505893
62.49172715
62.07878728
62.19769069
62.05479452
62.08344147
62.34289985
61.58823071
62.12144871
61.69579026
62.05986055
61.40218844
62.75907208
62.99890099
62.176342
62.30442722
62.05011777
62.18610699
62.11461704
62.18689143
61.83317166
62.12754757
63.39453004
61.87911473
61.41940685
62.02094736
61.93757982
62.47611895
62.66918428
62.97419062
61.7227411
61.80086427
61.79401785
61.56403985
62.56906959
62.52614041
61.71793088
61.66712271
62.04143833
62.14168081
62.6397857
62.77357004
62.31406942
61.4799104
61.66490802
61.35916194
62.19402611
62.61552022
62.70334526
61.90285626
61.84391521
62.7152283
61.92310459
62.83765694
63.02517623
62.04208015
61.69301598
61.55751394
62.46539656
62.11320131
62.73832063
62.3731819
61.65508263
61.55903924
61.55644354
62.35765474
62.50279824
63.33605054
62.13821219
61.79274669
61.76099587
62.66936659
62.34118137
62.08921107
62.53281776
62.09486313
61.86442008
61.96714357
62.13751679
62.46213454
62.6318969
61.97719606
61.58346729
61.82263114
62.05367917
62.32173541
63.01831035
62.35019872
61.54475304
61.54841032
61.64644259
62.01530676
62.46631267
62.81128713
61.7868492
61.51239048
61.50633453
62.38951097
62.35706166
62.640861
62.10329872
61.48355214
62.19286352
61.80020354
62.21852495
62.60626531
62.98197692
61.77632457
61.60190875
62.30091684
62.48779677
61.63711995
63.08773944
62.57660266
62.09336165
62.18962415
62.56407892
61.73756387
62.36547292
62.731089
62.14239507
62.08577858
62.53370606
62.64059333
61.81440111
61.87150024
62.06814005
62.68943442
62.67973161
62.6878554
62.03640593
61.6945783
62.39059378
62.30360525
61.95194299
62.74096902
62.70416452
61.99022035
61.96976482
62.8656508
62.21742378
62.64157344
62.68698266
62.71731878
62.61071437
62.0475255
62.77560324
62.63455276
62.71325893
61.98561541
62.55827935
62.23129254
62.75967838
62.26042845
62.3488415
61.66114618
62.1576656
62.83756818
62.57936188
62.09022275
62.69555992
62.69976124
62.64291563
61.87569513
62.42261222
62.75239165
61.96660743
62.82482737
62.16339201
62.39073876
62.89148462
62.29596302
62.54307422
62.62160083
62.21252974
61.65104285
61.63767542
62.26296984
62.79998762
62.10719136
62.51608407
62.65123249
61.88040687
62.06204274
62.70760551
62.43381662
61.68653297
62.0722885
62.2967684
61.36803946
62.58119076
62.6983916
62.53395562
61.3176563
62.4268103
61.83025025
61.45826674
62.98511209
61.95404772
61.88789477
61.76205472
62.90482598
61.54814913
61.89787852
61.84619534
61.98167297
62.23335698
62.24445256
61.63893901
61.5016479
61.88837334
62.81315009
61.35840765
61.75156005
62.64648847
62.18756486
62.40261343
61.86956103
62.39232138
62.24007936
62.4235746
62.72009698
62.06128264
61.6517271
61.84335263
62.39796038
62.39207734
62.05962888
62.43540793
62.78046472
62.32000681
62.52855795
61.27784105
62.18152744
62.43996298
62.53009721
61.83633463
62.14291425
61.89301051
62.26858734
62.41346051
62.60289017
62.59434252
61.93209761
61.41754025
61.99287956
62.8271884
62.65185434
62.73996012
61.88635865
61.20553841
61.81448663
62.66919465
62.67715269
61.99375371
62.50978159
62.17453117
62.20899288
61.94873331
61.94996436
62.46440492
62.5492998
62.31281529
61.41561509
62.10435923
61.54154005
61.78403761
62.8903775
62.48444575
61.990845
62.19571502
61.77884641
61.98460594
62.08032847
62.78215076
62.80807837
62.01164692
62.32219645
61.86071127
62.13493827
63.35645192
62.87260198
61.78496574
62.26664581
62.34290698
61.64047773
62.41903427
63.43005544
62.25900612
61.97384106
62.48589495
61.85967357
62.77002781
62.70994504
62.50057944
61.74540212
61.61727719
62.25624933
62.52463043
63.12847589
62.79342414
61.43555056
62.09161758
62.41515035
62.19513273
62.46380422
62.54706662
62.20798753
61.46561429
61.99313956
62.74026234
62.30634316
63.18814078
62.41883469
61.57585671
61.48447124
62.3447785
62.50201803
62.38860677
62.61329853
62.18251915
62.10167419
62.54799005
62.05823236
61.72530643
62.33328852
62.79948533
62.05810919
62.13777017
62.94547112
61.70267843
61.77900344
62.49304732
62.12065909
62.49790657
62.15062752
62.39976819
61.60804498
62.29113298
62.39322251
62.52282739
62.73880643
62.7735112
62.23384578
61.7804907
62.2461742
62.86448942
62.05549436
62.58479651
61.97168599
62.38578107
62.15429208
62.66081164
62.40351889
62.21072759
62.99504669
62.28244801
62.32083846
62.43464069
62.53211394
62.87448622
62.28141209
62.20639055
62.03877999
62.57285106
61.76644227
61.72062807
62.26963893
62.09753319
62.54043024
61.50870863
61.88052078
62.08649533
62.13281592
62.33434754
62.7591489
62.70144065
61.31031615
61.64671551
62.26346007
62.54730665
62.83690892
62.403084
61.94052729
61.84076404
62.0109933
62.16555915
61.62488086
62.44457477
62.46913505
62.20462484
61.79289195
62.267596
61.95418466
62.07630468
62.81253826
62.33417183
61.79955246
61.93551653
62.1904827
61.9832514
62.43583244
62.90171994
62.26964103
62.30871598
62.49333546
62.37695003
62.51896706
62.2947388
61.56042553
62.82199725
62.6614754
62.7430804
62.64000959
61.88146152
62.50234965
62.0126824
62.20072086
61.92849166
62.55126796
61.78451924
61.49415784
61.98408952
62.53884777
62.80628064
62.5987281
62.82402256
62.47313092
61.90766623
61.74889696
62.3366157
62.17196389
61.9311258
62.85788006
61.94237023
61.56891873
62.1017024
62.46396193
62.57186896
62.80737758
62.64570583
62.04537705
61.72710349
62.43600369
62.69058726
62.05992145
62.78610722
62.70206121
62.63465529
61.8756699
62.23358805
62.04766903
62.08177759
62.71756613
62.76866585
62.55449662
62.15798526
62.54275774
61.85714051
61.87860103
61.95672708
62.17419026
62.58169498
62.78699865
62.63955673
62.78469113
62.49746736
61.44317943
62.68170643
61.97875254
62.29066722
62.54835663
61.85144619
61.97460406
62.77470521
62.63029628
62.84819621
61.85325173
61.74992882
61.64844145
62.40054186
62.11701949
62.21605759
62.86463011
62.63941283
62.74316413
62.72378571
62.2740847
62.7351506
62.46820367
62.05060243
62.69934789
61.99991783
62.61816488
61.99856392
62.0690321
62.49776483
61.36583638
61.79842432
62.40462865
62.45960708
61.88621643
62.62461015
62.00926431
61.85089557
62.58944365
62.76342331
62.68032254
62.74201577
62.61225041
62.06320784
61.79748539
62.62811192
62.55242414
61.74169682
62.46446989
62.83450034
62.3940052
61.82521089
62.07331196
62.83091741
62.25319724
62.33802935
62.1329588
61.67841576
62.39283304
62.72479173
61.9658566
62.87386883
62.23410822
62.05254218
62.42671111
62.19012546
62.88483818
61.77243451
62.22143799
62.77325908
62.27782904
62.54715122
61.68556564
62.54813348
61.916105
62.08870866
62.86900372
62.53224697
62.06052715
61.43844759
62.19947624
62.84604067
62.61075223
62.7729285
62.61855043
61.98681148
61.76191059
62.46160239
62.33397667
62.70650595
62.5002468
61.8471516
61.95398109
61.84008697
62.62788064
61.98387892
62.30029952
62.50640023
61.90058574
61.32150924
61.60319318
62.09550312
62.34188513
62.98011446
61.97599366
61.57834845
62.04603041
62.7527088
62.41459454
62.45183419
62.37234624
62.66154387
62.80774379
61.87087945
61.43939191
62.04933302
62.55925378
62.74255586
62.71288681
62.69026927
62.77622575
62.4915604
61.92541623
62.2439252
61.91391912
62.85633855
62.3074491
62.04506879
62.34758236
61.4356978
62.0464076
62.42071919
62.30338894
61.84729465
62.61421939
62.44883009
61.41702342
62.02228338
62.45449352
62.90185156
62.15913764
62.40603126
62.04286127
61.72927121
62.39621139
62.783154
62.50155147
61.71663376
62.48701654
62.02184033
61.77283354
62.06371758
62.13344323
62.77260846
62.33959464
61.73962139
61.96915485
61.74414326
62.38705625
62.2107938
61.61928296
62.39564325
62.15676198
61.88458146
62.54218668
61.71421589
61.99183992
62.4666314
61.86443206
61.86527982
62.46426857
61.97600618
61.71670568
62.55729638
62.56754782
62.06236991
62.85778146
62.5920552
61.98035248
61.78001439
62.46076502
62.74294836
61.98782603
62.55513405
61.72667744
61.66856035
62.14095784
61.5684374
61.98125128
62.87385975
62.35954272
61.96071904
61.79045946
62.22818599
62.52998213
61.74413311
62.45158317
62.312416
61.7837391
61.95633197
62.83202309
62.17804529
62.42324959
62.30187322
62.8387829
61.76105463
61.66776481
62.41113423
62.72794894
62.70789608
62.73897436
62.54076981
61.86706151
62.62374921
62.6053206
61.43172523
61.71497893
61.97159491
62.16238111
62.15843697
62.1703028
62.10514479
61.85812824
61.95880748
62.49816743
62.23267481
61.80271898
61.6596185
62.55371604
61.81217936
62.22690386
63.26366296
62.56112085
61.45058717
62.08794961
62.03262381
62.49146973
62.43819722
62.37537853
62.19141476
61.89967917
61.93868357
62.16622955
62.28738872
63.02175681
62.36022524
61.50667157
61.9252094
62.46617813
62.84759398
62.57601101
62.37656926
61.7390581
61.44373448
61.92920884
62.04611493
62.5943379
62.94918134
62.00065073
61.64528544
62.18352027
61.90668737
62.79340717
63.20555498
61.96165856
61.37694022
61.319766
62.28714583
61.96367612
63.73519367
61.61340569
58.64053308
62.91869935
62.81792119
62.56468829
63.61293515
62.22652626
62.05377541
62.22648106
63.3867731
63.0520165
62.31707815
60.72132054
62.71270539
64.83346491
63.77517848
65.24313296
63.75518189
62.17867089
61.83580686
61.12759541
62.39438551
60.70215192
62.98894702
62.70394637
62.69200429
61.42834223
61.23184193
63.38137447
62.51431074
63.35867056
61.51988333
61.11229421
61.00420202
62.02822232
63.12762953
63.14420934
61.93048398
61.41978524
62.96854074
62.27852828
63.08699769
62.14446757
61.20424978
60.81841576
64.04027363
60.6006474
60.66606911
59.95004822
62.24375628
64.51142363
64.96837669
64.91015641
63.34293527
64.08145578
64.061218
61.62280832
59.60789039
62.39227595
61.81669635
57.28707269
61.47770256
60.48501486
62.30034104
66.09934713
64.0003796
59.95559729
60.97955444
66.73204952
66.87105633
68.25376709
65.714488
69.04660525
61.40525484
56.68836802
65.79946179
66.23396167
70.81232085
63.81480581
50.65455046
74.43063131
63.57283354
61.61804165
61.19181502
66.31299681
64.25779055
60.04331316
64.60780492
64.84666389
61.63066713
63.03594079
61.62473123
68.64758539
61.8605332
57.98219789
63.23596542
65.20727146
55.93874143
65.31821187
66.11483277
60.3748855
61.12563769
63.85147893
57.30226553
61.19207308
66.70237999
58.30855215
60.29447103
63.44466817
67.57599424
69.71338801
67.58242328
70.21544317
69.93457213
67.32130124
63.93535501
50.03438865
55.91827004
58.81894376
60.48911613
59.54855947
64.34626112
62.08947169
61.78476592
64.4728312
61.15445074
64.33335028
61.56161104
62.46136215
63.3971879
60.91247189
61.67321596
60.23713568
61.28204579
66.45886424
77.48414099
79.07862575
73.56619711
73.43957259
65.82888851
53.2817285
50.42361665
55.06562674
58.83576114
65.21101633
66.26767392
70.1023645
55.64864586
140.9385803
141.3712059
63.29761221
40.59344083
46.22346335
69.41357053
92.70797834
67.8712979
52.52875011
66.50735205
58.52210032
59.8304735
66.27386282
62.76476799
66.35376226
65.90002964
62.28580585
63.68340101
61.41750991
61.45049168
62.36441852
63.10628138
63.8865412
64.74158893
63.96783651
64.26258868
62.84234331
61.31156936
62.96849143
61.67813988
61.90822364
65.39495668
62.8114581
62.38127706
62.24268031
63.16517709
63.18241916
64.5972914
61.43113292
65.41049331
60.860967
59.8965408
65.78454141
58.95144675
65.70864291
60.57104942
64.5123522
60.78820751
69.55070308
54.8498701
66.73154924
59.68862161
59.19841711
64.61775406
59.68656969
64.93386298
65.31201296
64.16904131
61.18959326
69.26551288
59.35756895
68.45245498
61.22685989
66.93068509
58.03743182
70.0889682
62.09776141
65.41212217
59.76717394
69.89545958
53.03103654
68.04487152
59.77300688
64.94538191
62.43632307
60.72821526
63.0993816
59.78694715
66.46758731
64.98470134
60.42187868
62.05815144
62.23145592
58.97364833
58.74023283
59.31506594
60.67454482
62.79674013
64.62183133
67.38538653
68.10371442
67.42050992
67.10686624
62.89512927
62.30160747
62.52409495
63.67709877
61.44979548
63.91774966
56.46638086
66.34203184
66.22196607
63.8518526
66.0899905
63.91572748
67.13595941
67.72541627
63.26800355
62.34414474
61.9570296
62.82487625
63.2349033
62.23078065
64.67861872
62.42651473
63.97670194
64.31333266
63.69536501
62.98124487
63.70892095
61.68098025
61.10869931
65.86970158
62.4165078
65.0936182
63.9280866
63.13540249
63.0252358
65.51080848
64.67179276
58.13491908
66.02249892
65.263034
65.02134955
61.97599016
61.96746987
60.4001736
62.94625866
62.21870618
60.14496175
64.48940638
61.02043374
62.91773879
62.37045822
67.98334607
62.1468255
61.51459072
61.62993775
63.86927608
62.09513452
65.01333263
66.39598787
61.70842427
64.13866744
64.10911253
65.88006733
56.98132145
61.79111451
62.889793
61.30906682
65.22290281
61.67959494
66.04086733
65.26061475
65.56096912
70.46952366
62.9485787
61.88602419
60.26395751
59.88180829
63.17191486
64.84813906
64.79188452
64.56964248
59.6813728
61.40403923
66.96513007
63.14307224
65.9555309
64.56103974
69.1392284
67.05379934
59.16323087
62.77297227
61.87848943
65.64484076
69.61928476
66.04683271
57.54045452
61.80727472
57.33669418
64.20679994
68.66832294
74.13898574
66.24045009
59.51482837
62.73471711
61.00164755
61.97930689
62.43699461
61.86812004
61.98932973
61.55874715
62.57672893
61.70273249
61.52413333
62.70766257
62.70043914
61.92546835
63.8100627
59.48245326
56.63561746
57.70033787
57.32308744
67.13226899
69.80694421
71.65265267
65.58506782
65.33653691
65.5302677
63.5380823
64.6857529
64.63077203
61.73883004
64.34169816
62.38846921
66.37675356
63.20413914
62.70646817
66.13320284
63.86391619
62.39124633
61.91307578
62.43890671
65.53679265
57.51924923
64.26790418
65.40707754
68.23103529
63.50220634
63.65050517
59.43839066
64.18406415
70.92852975
71.89226817
74.10032689
64.41886095
58.97022691
47.7160803
53.00460198
60.88222901
79.3270836
88.98186387
78.22884717
65.70263979
50.4358366
44.30003722
46.1564342
54.03178448
77.94785204
98.64860606
81.73353735
63.85729658
56.57295699
41.86151454
52.34135612
57.77471789
75.11212015
92.28436025
75.88033969
56.86851212
69.75192297
54.72989333
53.25716741
57.34645051
54.12603586
78.32334293
71.36558534
71.18948191
61.82472292
69.17799551
66.3340219
56.74774321
71.08824108
69.55010685
64.71917371
54.54246838
67.9555879
61.33415418
57.72568744
74.66723515
77.94710567
59.71945429
54.73663873
68.79464038
67.91001565
66.99467023
68.21735144
75.95154491
64.03812923
52.39503373
70.34411318
70.86327627
54.65863502
65.63114124
67.56823721
59.33102292
71.45696481
62.58055369
56.11561514
61.95181034
74.02516429
77.88723558
65.65560208
67.74676272
65.71720949
55.01451411
55.75832846
79.62010185
54.35632974
53.8104965
63.60204865
76.12651119
76.87244204
69.74514769
76.66387118
69.54074118
55.17206813
54.68252206
63.30296646
63.06380374
55.62264502
64.63091808
80.34411582
75.25375476
61.1676729
67.90310487
60.18933317
58.22232021
57.70153713
61.46745557
60.53558189
66.33529751
70.69585872
68.23626226
66.97569986
53.07614829
54.00786031
65.69813835
52.51805879
53.85897212
68.19273136
79.73023898
82.39735691
58.66616322
49.80344934
56.40056555
70.38666405
75.53870145
64.38209819
63.27713408
63.30502987
63.08909962
62.84456173
61.19979771
61.4907868
63.80037928
65.00872513
58.22162257
50.7717878
70.3544616
79.13824222
73.85581242
61.09175601
54.65353274
61.04099704
61.06171703
62.70889151
64.63463782
59.6009932
56.71661427
58.60319736
67.95652393
80.04256601
67.26396892
66.10220969
64.95861685
59.34432761
59.9513009
55.05004696
54.75399589
59.50399478
57.99434867
67.01049756
83.20857684
77.29151807
66.06143917
55.31725866
53.71347958
54.41389871
64.16867372
61.31072813
74.42462755
82.01296112
75.00598611
65.33164883
49.95579283
59.42746938
62.72893224
52.35634956
59.70497157
65.9037592
63.38286317
69.82993181
65.90957819
60.86426497
61.48136381
66.89479556
71.48828322
71.88303524
68.15501611
60.03580617
47.64391246
52.7086839
65.05992387
63.22813552
61.08645656
59.78180023
59.73618062
57.80560814
62.52540849
67.69026692
71.42217299
79.0847959
72.87510181
61.49462529
63.58493468
66.16076277
65.27080132
56.08899116
51.92057716
56.26860859
56.37147906
59.05353376
68.96696632
70.46463213
71.90348619
74.58789509
67.21164619
62.95260292
60.79086395
59.66104283
61.15378317
58.10583223
55.99066892
62.16089963
63.72364279
67.06992342
78.70215911
65.79426212
49.38283783
61.31080559
68.10210656
67.26589106
60.04631146
53.4992734
70.65034956
76.56945715
70.62342329
64.34699451
57.98701898
49.16117302
57.72893594
60.35651093
64.02158668
64.17317431
66.24730701
77.90269814
79.07521079
59.33776264
52.0053868
58.44540506
57.25852688
61.70959125
65.59900691
66.71171861
74.38392854
76.50060882
60.83857587
53.53136593
60.40660154
66.38981744
65.16332699
66.63150913
63.07664539
60.72486572
54.5315456
61.88529451
69.49892605
59.10213728
78.15327118
74.71017287
59.76703231
59.48701785
53.87461775
55.27390715
61.77041565
65.01281544
83.21531419
76.23476176
58.76978778
68.06027073
65.39834669
66.61803971
61.47165532
57.17926873
58.61840063
61.80247954
63.80212843
62.66901609
60.72035483
63.88026232
68.26852384
60.27439695
66.63643366
62.29468641
62.0079827
64.00251579
62.54490187
61.45904558
61.94017709
65.3727547
63.94637416
60.76377983
62.03470332
61.35293293
62.5421114
65.63562523
63.93832265
61.36334118
64.34747921
64.12605628
60.89291777
65.70913361
67.10667001
61.10204911
62.36353573
62.47600354
62.21455849
65.24190125
63.26540146
63.67704753
61.97518537
62.6790301
64.45460023
66.49384246
65.19708506
61.9826244
60.23352126
66.36968417
64.33597314
62.96111972
66.108126
61.08266539
61.03818141
59.67694156
65.08642694
72.65385246
71.19274146
72.45368711
58.24514483
45.84427269
66.70971637
61.46533742
62.71290749
71.24352693
61.79257713
54.892893
56.65766587
68.60946554
68.93535112
65.38004775
58.15135768
63.3697748
63.2445988
61.19850231
64.76548884
62.73364281
63.35258317
62.35376181
63.77056898
63.26698683
59.46555284
64.37648009
68.55012668
64.54377681
56.40326198
61.55576431
60.23773607
59.91965342
63.9202154
63.33859773
67.62041784
69.4930066
69.6911923
67.87109474
54.55471669
55.82272845
61.49198362
62.48673656
61.69067803
59.80561027
67.34168089
61.07850281
60.4299257
75.30592989
67.14527281
68.17237945
55.08710027
56.26932071
65.44089805
62.13125758
67.77794558
60.7568202
63.61170941
63.70597032
61.91201961
64.26967467
53.17317245
62.82033987
73.10746753
74.6495838
60.84833466
52.74052334
49.45935224
62.95970054
62.60988927
64.82796728
75.20822046
73.40883702
66.10944403
63.17646984
58.90363733
55.58973781
54.08478904
84.92111504
84.8683426
60.06039515
71.11050393
69.61246236
56.5557946
56.81137169
69.73555934
67.5070639
61.42783287
61.2957872
55.6112684
52.14838885
59.9348097
66.15200662
70.12393722
60.85511657
68.52725099
61.09783596
65.67214016
66.12630696
61.43700964
64.06863064
54.53964805
69.72383629
66.4449299
65.41874102
61.77697643
66.51548353
72.21176752
74.30341818
66.38690742
57.56161699
63.60670038
61.65484472
56.82003882
67.18274659
66.35283148
67.53686206
68.14308226
60.79223338
61.41968827
58.62719067
61.69069305
70.38829749
73.76649085
66.07663524
56.65666729
48.05424082
62.1706685
65.52357374
58.99522932
78.89378268
51.74664208
60.98298507
56.41776335
77.60736626
88.21232349
73.06489732
69.11263327
63.15762654
59.01975199
57.25182299
63.85555296
63.11273688
63.70458801
59.65052338
61.59635272
71.3651512
47.46519315
44.42585525
70.51637782
67.08696973
76.78389894
64.8631986
65.6915236
68.27759642
59.50439267
68.2914062
66.50915221
57.34340882
56.88827874
64.51217627
64.36000778
69.67601735
68.09527853
70.73582793
55.77931202
64.17164907
61.25579691
60.63638507
67.13306524
62.60104398
60.56083933
68.25420816
65.88753065
64.73061829
67.62828651
60.20046489
62.5276446
62.46208884
50.25400584
52.84107366
59.69066086
82.22104159
56.80529575
63.1103125
59.99881353
57.67414036
63.10204142
75.15183558
67.17448216
61.82470948
59.37011739
56.13972065
60.43247942
72.95315265
70.12113138
59.17530976
64.1555467
56.44952638
59.53562221
63.74210096
69.57843119
60.85916418
61.82855972
66.50936462
70.09749764
69.82411081
60.0761773
60.20426997
62.88148452
59.79271718
68.1873885
71.90731853
61.35323245
64.8497113
64.98811177
57.52727367
60.81606753
56.3009679
66.5390041
64.92216487
60.64692959
69.30166939
53.33748879
66.37683306
58.9436311
62.33967391
60.34835073
67.75441357
67.48563972
73.04322027
64.02474049
56.45892979
54.1864867
59.09291794
63.56063171
58.2691942
60.81396732
81.27261705
77.56203436
71.53943541
66.65182235
75.54067613
61.44528308
58.70517271
59.13422815
62.80925354
58.28340884
54.94866816
66.25043173
62.92610066
66.89479798
60.79346606
60.1753563
67.0825737
64.21622241
62.50068127
60.25872155
62.74795444
59.95700218
64.65712044
63.86169337
60.08299991
67.95795334
66.4481868
72.20418347
54.32276573
68.9061617
76.09358352
62.11918341
60.54744752
51.7342883
45.35050231
43.9519512
49.47491904
58.89608737
62.46519433
63.79130488
59.80927572
65.32241069
74.69106349
79.96420024
81.87285828
79.68733604
76.11828391
70.64027249
64.33020263
59.72386327
63.62912869
62.52007426
63.41307543
63.52040561
63.66879966
63.42917235
65.07390661
64.15413695
64.1629494
64.24853494
64.18040064
64.25535373
62.8833629
62.51623003
63.08218526
61.65479857
62.84743183
64.19740563
64.40970406
64.24012564
63.4562683
62.99948789
63.34870824
64.28607632
64.39283558
64.33031208
63.53263915
63.07064104
62.50130101
63.23358261
64.27181069
64.51276568
63.75812604
62.85927004
62.43603634
63.77878341
64.678284
64.76703447
64.19730575
63.34777265
62.53242937
62.96182281
64.55304058
64.81291905
64.10948711
63.70666565
63.69118359
62.48384694
62.96665575
64.60295789
64.46203034
64.26853734
63.77945831
62.98176745
62.43847959
63.49762661
63.90532533
64.33120794
64.42322211
64.47604058
63.05415366
62.58010356
63.92368726
64.38979411
64.27146194
64.31582743
63.20405458
62.21844772
63.58437101
63.74537675
64.28659724
64.36758727
63.61510281
63.07627298
62.23382477
63.53397658
64.44441235
64.17062497
64.73540755
64.43142361
63.7426964
62.90132127
63.09088026
64.39604934
64.53207222
64.31739607
63.75163255
63.15927207
62.69350748
64.20716115
64.02273826
64.24265801
64.58916325
63.67735196
62.55784691
62.97654017
63.67180005
64.78361101
64.71751432
64.0857203
63.89533656
61.51370805
62.11962281
64.47574292
64.96867036
64.06946144
63.87534001
63.10076287
61.96072463
63.27171622
64.87547707
64.89255134
64.61855688
64.12842764
62.16239651
61.91685951
63.88792073
64.06097024
64.29027582
64.64491167
63.46450747
62.67373451
63.59858368
64.37036027
64.97001344
63.98991241
64.12027215
62.32933124
63.32864895
64.3849977
64.32417309
64.7566817
64.42756745
63.50541962
62.87461808
63.18301118
64.18006107
64.69693417
64.57481704
63.78045017
62.52129963
62.60599222
62.94420672
64.78780095
64.82612939
63.89116109
63.48223592
62.63216876
62.9517666
63.89152277
64.95126758
64.79126732
63.96676387
63.3297634
62.97233966
63.01594317
63.77689217
65.03509263
64.98534116
63.41908436
62.81719225
62.6580029
63.73159919
64.36137687
65.12916146
64.31788019
63.53166121
62.95937029
62.6057408
63.54847713
64.27516159
64.39625638
63.91200806
63.39280467
63.2786815
63.82350493
63.69177675
63.506799
63.78388834
63.59885453
63.87207199
64.01253567
63.80087629
63.84988773
63.45077974
63.26875874
64.2959547
63.78538537
63.6598098
63.57305189
64.28413558
63.65513583
64.20862581
64.07152209
63.28364912
63.10258339
63.74248949
63.69536909
63.41303781
63.78512844
63.81505109
63.67049095
64.06658976
63.8327262
63.64697949
64.25752449
63.67554749
63.83638306
63.72136014
63.81763731
63.73038248
63.65239189
64.03155074
64.07234648
63.8148845
63.39822726
63.76287261
63.39248775
63.5467338
64.12182307
63.89897181
64.48568536
63.06541585
63.70853564
64.02592547
63.28763147
64.35678505
64.07944208
63.75205103
63.74417666
63.61036108
64.45884229
63.69328576
63.69802135
64.43081394
63.94533043
63.80124183
64.12536992
63.42286111
63.4817757
63.53157144
64.2420738
63.47820339
64.07910076
64.39666171
64.01252817
63.30642727
63.66137636
63.11090695
63.67485547
63.83045947
64.13517735
64.13882797
63.29111341
63.60020867
63.35228465
63.70750908
63.51605161
63.82699228
64.09459728
63.34441121
63.57997566
64.10032863
63.37470782
63.99241579
63.81197661
63.97574877
63.4765621
63.41171651
63.61532619
63.08044834
63.80129251
63.72172825
63.43210085
63.39695864
64.13419188
63.46139069
63.87156852
63.5825119
63.18542372
63.5585454
63.71754849
64.51152874
64.05430394
63.39766071
63.3264074
63.79205087
63.62144044
63.85275695
64.81906924
63.78338887
63.07234203
63.50128601
63.53450012
64.04527196
64.21124392
64.47344311
63.59534595
63.02494794
62.89800249
62.97492755
63.65393039
64.28659312
64.85553061
64.3592388
63.29926545
62.8213395
62.47772785
63.88727486
64.28722693
64.24978424
63.94232279
63.48282069
62.66161334
63.43190426
64.91657276
64.92032343
64.11240589
63.30805098
62.61701008
62.45962999
63.10366921
64.26258823
64.94618844
64.0634295
63.92868771
62.36530688
62.70569471
64.08326996
64.50492007
64.43984761
64.81398889
62.90589993
62.55664613
63.01154313
64.4036613
65.22347939
64.5784271
63.7035699
62.17296711
62.95380274
63.99084675
64.84833715
64.47693681
64.28688587
63.53525974
62.6245695
62.94390471
63.89630387
64.37819108
64.27245349
64.04515498
63.08387773
62.41585306
63.60593149
64.96914342
64.85145057
63.84832118
63.05268982
62.51333784
63.13292361
63.7486155
64.39087658
64.72588505
63.87340434
62.95306709
62.45446589
63.2959552
63.83679581
65.08676965
64.30480811
62.85572943
62.81484811
62.54680796
63.51144795
64.25071518
64.39874733
63.96745374
62.9829478
63.26185941
62.97533872
63.80045405
65.07634289
64.79866423
64.202177
62.35433216
62.43328287
63.17075157
63.87623851
65.02436917
64.3192551
63.34267031
63.10287615
62.56110726
63.25842548
64.50481278
64.83253524
63.26016417
62.35117131
62.28134694
62.98175105
63.19754
64.82836174
64.50683475
63.69574814
62.87683676
62.94384892
63.63008785
64.04665388
64.65572118
64.28493098
63.08463494
63.29079277
63.20018247
64.06344117
64.12917891
64.60213602
64.34938465
63.06872635
62.1353712
63.09339876
64.03289453
64.9281185
64.34069785
64.38751069
63.20246548
62.41561057
63.50174085
64.43093652
63.91256574
64.20772581
63.61774496
63.15043061
62.83804138
64.25319715
64.55904431
64.20806126
64.42782436
62.79052511
62.22704583
63.57979535
64.83502566
64.14855287
64.44900615
63.59663246
62.94834901
62.88881689
63.43888889
63.99769965
64.65680346
64.32312876
63.08892213
63.27756556
63.27770776
64.39496725
64.64961862
64.32248281
64.00559859
62.91803588
63.17382978
64.10051466
64.43912105
64.85801688
63.92053079
63.2356328
62.27294002
63.51421993
64.09599573
64.30739011
64.41999499
63.80149029
62.77338628
63.42223163
63.55797789
63.82172518
64.60623197
64.37905796
63.89412377
63.37381261
62.54408883
64.08742011
64.62663936
64.54207851
64.51059275
63.33914011
63.24667746
63.15637257
64.63888945
64.12197766
63.73278888
63.7324874
62.91780927
62.92979358
63.49642957
64.94813023
64.86622482
64.04910097
63.17754988
62.73828701
63.07352099
64.95950317
64.59812997
63.81558618
63.51744491
63.22889249
62.76491081
63.4058568
64.34352213
64.15810053
63.36510205
63.89358785
63.44534101
63.1330309
64.18348827
64.32975153
64.25104133
63.14631113
62.93279195
62.94587458
63.76160265
64.54485969
64.65601701
63.59138039
62.79617067
63.86342712
63.77423939
63.66619253
63.46755194
64.00110555
63.62399508
63.45177291
63.74960358
63.83444341
63.63146722
63.50374661
63.93668837
63.73602036
63.76418908
63.83485654
63.40711673
63.29354716
63.71915459
64.10211354
63.61691293
63.58519662
63.91736298
63.39594571
63.27037757
63.79256073
64.24100431
64.34749264
63.56709975
63.56284593
63.88576475
63.95324293
64.37973532
63.68619039
63.82447322
64.52297922
63.20890792
63.53367159
63.84099266
63.72532165
63.86887957
64.01412639
63.78705286
63.77610264
63.76655759
63.79051726
63.74454857
63.86587974
63.89859628
63.33931046
63.77014293
63.77170613
63.77612175
63.34800151
63.81794139
63.7172973
63.86134484
63.56654845
63.51399161
63.47931703
63.63130149
63.82585033
63.84277531
63.90806705
63.61796431
63.26903949
63.2240246
63.73432163
63.949326
63.74307817
63.91074441
63.37721376
63.10796532
63.95423332
63.90637441
63.27708994
63.99513327
63.91968359
63.42411916
63.06227852
64.06148259
64.00741581
63.22517536
64.04275852
63.46100611
63.19953951
63.39108083
63.97826952
63.77708765
63.85297762
63.85913947
63.93859548
63.34042142
63.38305123
63.63728265
63.08375634
63.49621489
63.48633129
63.57160396
63.89744114
63.43865661
63.55337659
63.51684959
63.89133619
63.67417437
63.96489812
63.90792041
63.41016408
63.7796365
63.81226379
63.6505915
63.4813045
63.97751023
63.34623098
63.18996672
63.51292134
63.51256056
63.54862466
64.0739486
64.34354947
63.36512925
63.29874876
63.86157782
63.45055898
63.21520016
64.10239557
63.60372742
63.21138744
63.71397143
63.8534769
63.41942014
63.99707671
64.10819933
63.44888651
63.28247868
63.59078957
63.45619291
63.77128877
63.85640275
64.01880256
63.41430706
63.83603404
63.78562173
63.60600225
63.44976964
63.87768815
63.71224073
63.81327008
63.74164096
63.79998444
63.7425674
63.83163977
63.40573158
64.09079857
63.82078794
64.32711139
64.50173274
63.50962009
63.57574165
63.2427685
62.92681311
64.16909254
64.3143865
64.29692095
63.97904731
62.69562721
62.31662319
63.90040178
65.01562419
64.77982436
63.83783225
63.66484076
62.84247117
63.26472907
63.46916385
65.03505445
64.44184181
63.57056772
63.00392506
62.50108769
64.1292768
64.42263308
64.17402217
64.40734072
63.97004552
62.88344145
62.25067756
63.53800192
64.94815024
65.19833213
64.44321088
63.10784479
62.37424526
63.31595392
63.7275043
65.03488572
64.41011893
63.19839093
62.41358773
62.98584605
63.89063851
64.36194646
64.30715417
63.07556093
62.89371005
62.96346069
63.48562952
63.59573442
64.31424613
64.38659353
63.66334065
63.16356956
63.87869685
63.54119152
63.35837449
63.51713182
63.47888394
63.653592
64.32067627
63.36867902
63.32991139
63.57470064
63.5249813
63.96863714
63.66226378
63.89437131
63.46950694
63.27432109
63.77465112
63.43060215
63.82046233
63.57854084
63.58106372
63.48768955
63.5162017
63.57617548
63.92498898
63.49149563
63.77844035
63.60699667
63.48784418
63.50387621
63.60327174
64.07534479
63.42533799
63.27051236
63.9090256
64.01124309
63.35956692
63.85869079
63.6804477
63.37265884
63.97475197
63.49007238
63.27231916
63.7961065
63.64203397
63.45277005
63.93222075
64.17209387
64.49690103
63.63634547
63.44781494
63.86244349
63.76807564
63.57253456
63.46511075
63.94477018
63.50764783
63.52187055
63.81385927
63.97199453
63.54367588
63.48674251
63.91043691
63.78127232
63.17409892
63.64165855
63.80701112
63.7533106
63.78484764
63.90279229
63.84560163
63.52898086
63.47759857
63.98445286
63.338037
63.52110224
64.15850406
63.69281295
63.82353584
63.74075339
63.94611418
63.77913128
63.76089855
63.80102677
63.24008839
63.4434572
63.84141317
63.85961196
63.37373961
63.95342327
63.79915714
63.41509056
63.90596817
63.88177512
63.81814871
63.31843518
63.89578443
63.38024092
63.67271313
63.82448814
63.72613565
63.83751337
63.62221295
63.42811258
63.72121452
63.48901029
63.63224082
63.57164913
63.8027724
63.89525566
63.71569805
63.79657964
63.7750603
63.73676128
63.93681528
63.49476075
63.63695814
63.8890219
64.00596276
63.46188187
63.84901956
63.83881044
63.41209322
63.65420864
64.11647518
63.55839321
63.20405251
63.80034298
63.64932184
63.56217135
63.95395719
63.63885316
63.69898806
63.63020945
63.72107529
63.48648666
63.13339451
63.58645843
63.73623802
63.44613031
63.86575115
63.89073662
63.7890593
63.77178051
63.75682434
63.82215683
63.53728222
63.47624459
63.58674081
63.61333721
63.64531233
63.87860988
63.80558193
63.77149121
62.93728235
63.20869114
63.3872299
63.85363542
63.71916829
64.01741558
63.56822492
63.78617414
63.85582278
63.76503388
63.58039402
63.41289829
63.75215996
64.26270092
63.33987102
63.99114927
63.4957305
63.60463888
63.92474262
63.69410614
63.88315019
63.88810809
63.7098448
63.4125787
64.05322839
63.82681753
63.75748841
63.78576623
63.76066638
63.7930753
63.7659333
64.02076955
63.34768204
63.7271282
63.64460203
63.75073508
63.53873448
63.79928706
63.8100658
63.87600485
63.85163572
63.69765962
63.02124231
63.18888801
63.38651233
64.60262654
64.97619643
63.71772478
64.03578306
63.37060608
64.51032
64.2298624
63.16335655
63.04899612
63.38116082
64.03517773
63.04751026
63.57459547
63.07670631
63.6912317
64.51051558
64.14206224
63.41096522
63.43961288
63.93313912
64.03570914
64.08566044
63.78449524
63.60773246
63.35349432
63.796252
64.09779027
63.8001046
64.11474901
63.3299628
63.20607505
63.5900952
63.74615069
64.54483787
64.35078839
63.63823286
63.24300012
63.87603132
63.13886129
63.59034518
63.4812201
64.68220516
64.67542715
64.71176334
63.9352102
63.21473479
64.21995888
63.97169757
64.40051265
63.8344856
63.88557851
63.13373561
62.9018185
64.34826648
64.37347317
64.6406278
63.79913624
63.47364637
62.78356387
62.60185487
64.01631047
64.60598453
63.91998524
63.748039
63.69493166
62.48429363
63.30144879
63.6597797
64.39167838
63.83796543
63.5631062
63.40870886
63.4020842
63.83280409
64.29842488
64.33587827
64.07706585
63.58094473
62.50695156
63.46734516
63.9563901
64.48209163
64.59120903
63.22990298
63.25183014
62.8875229
63.55839225
63.99412035
64.66037038
64.31924545
63.27192831
63.23634882
63.59878712
63.8065749
64.94905302
64.50765912
63.66715814
63.44982698
63.52468924
62.94058612
63.58816841
64.41213099
64.59565811
63.92105164
63.0408128
62.76119635
63.70490566
64.42697864
63.87962367
63.24831594
63.733105
63.83247883
63.4457623
63.24293444
63.78986851
63.79459325
63.43850418
63.80093675
63.8820758
63.42861997
63.4068502
63.79317998
63.7665523
63.76796617
63.96175018
63.63192453
63.17963405
63.34053481
63.62016238
63.26314214
63.22944061
63.71810382
63.75854821
63.91342878
63.51296002
63.62306075
64.19225022
63.40493434
63.38823
63.67897485
63.64753772
63.50528045
63.3285001
63.77484397
63.43579754
63.68083095
63.86897551
63.61493364
63.12218147
64.2608819
63.76089146
63.16446463
63.79813741
64.12776361
63.59126081
63.65361364
64.08755031
63.60924771
63.16810023
63.82929173
63.97845324
63.81224235
64.03398958
63.80667424
63.66929055
63.17300235
63.63151592
63.85327693
63.89248062
63.78095698
63.71990525
63.38727457
63.80439465
63.77369727
63.74650597
63.83586474
63.47236108
63.55163043
63.47953048
63.95737148
63.42322048
63.58883379
63.62590939
63.72920511
63.99038702
63.67537706
63.63216706
63.46624916
63.75068766
63.34041198
63.70220141
63.94036541
63.63291823
63.28080022
63.22866377
63.65370178
63.86325192
63.97155488
63.90689807
63.60479259
63.54941691
64.02471309
63.6704616
64.07029129
63.82498912
63.84152677
63.61880287
63.58741199
64.17332256
63.29986106
63.72350022
63.88481087
63.60433476
64.73445032
63.26560703
63.55261893
61.08360101
60.89776952
63.19752268
68.11940777
73.1135513
73.94757354
76.54776349
75.58488316
58.48586238
53.69883994
47.37827653
47.95308366
54.69597811
63.27938814
64.18232489
59.99482319
62.08975096
65.64435142
64.97518251
69.29043106
65.93450579
55.97418215
60.77803844
61.69903425
76.28876281
77.39703581
69.02819288
69.8651086
68.98366492
55.97391944
67.23902644
70.61639713
68.29059793
69.89021904
69.49135425
81.96682757
85.17433474
73.38144545
61.53468676
56.42296371
65.67340903
61.8634787
60.85455595
61.04325431
63.286331
63.84031298
61.19324536
58.58336523
53.96782242
56.09380435
49.13990509
58.03592727
65.48008324
54.83527877
67.69346355
65.93189406
57.43597303
63.48789071
53.98108428
72.45988397
100.6921386
59.77554455
63.43860751
63.4015985
63.98950658
62.25184497
62.74119793
63.53817089
60.32941829
63.55723763
64.76325403
63.8272185
63.08623145
61.9495955
62.11213121
62.46029172
62.65631102
62.71581212
64.3912278
63.73915945
63.47877716
62.98548048
63.10310034
64.67120978
64.88212931
64.29818156
61.69546411
61.96611218
63.68976174
62.90389095
63.74165117
62.66004863
61.18579046
61.5444075
62.38025875
62.6585803
62.43177487
63.32589024
62.3507515
62.58836206
62.81577091
81.97032776
92.90291677
85.30534432
76.35293819
69.54270924
57.16876916
54.06362082
58.45248865
62.37055088
50.34492894
54.7988103
50.01050913
53.57401368
59.86263069
65.08182094
66.6384843
63.73155141
66.03369136
61.1803684
59.74732562
60.5942425
58.5882582
60.29634984
62.87851533
62.26906637
65.46878309
65.07176147
63.84909954
64.04316848
64.70020827
63.53692153
60.99200952
59.65490344
60.24630492
62.93550929
62.91203925
61.69497531
63.39651383
61.10655966
63.87084738
63.88145883
58.92011824
66.43809251
59.49497472
61.97577313
62.3668377
59.85956966
65.12569925
60.06889934
64.26791918
61.00969521
63.20617186
60.03845053
60.19460243
63.78611538
62.30816237
66.19430103
65.89349388
62.68002839
64.91914819
58.37024193
63.02060001
62.45177248
61.59882062
64.92776986
62.76263694
66.41321848
60.9595905
62.37854868
60.45635499
62.02016575
64.24334675
63.40049284
65.81325556
62.3899578
63.57885001
63.18113711
63.13027493
61.73154379
62.55243083
63.14867965
63.93897534
63.46869127
62.66908859
62.54819927
61.59985771
62.154191
62.89591677
64.04900319
63.38875752
62.58141295
63.92471628
61.91572013
63.08059098
60.52117119
61.53150332
66.15334003
62.60964707
64.55476173
61.44178554
61.40731523
59.8357864
60.09067344
64.1868853
63.63587253
66.68647821
62.19213345
61.52060464
63.99692099
62.19351006
63.51462487
63.23983832
63.29763913
64.0507995
62.14660236
62.7765928
61.5335215
61.28758002
62.62356126
63.04775248
64.02134206
64.451714
64.08742595
63.53841986
63.24847293
59.95448858
60.50203634
63.51504436
61.88444981
64.55001848
61.31834522
61.78833129
63.15509517
62.707643
61.40367654
60.7133131
62.26648314
64.30604041
64.18004943
64.32719234
61.28455708
64.56918177
61.74475272
60.92934636
64.54744156
63.35134764
64.58353356
62.02745902
62.19326236
60.23691709
64.25518393
55.18678294
55.90754823
75.09889112
67.75121158
68.13161127
66.90904048
65.98122497
61.81159631
61.95207963
58.01374726
62.83216657
59.58894977
64.2577024
69.82257252
63.66969115
72.73867975
62.63593736
65.97727965
76.72048945
67.94870484
65.41617765
61.10955361
64.31981852
61.22847088
63.3571352
63.59982675
62.57190382
67.0321642
65.1781861
63.91081494
63.97360283
62.35122277
61.92403237
62.53578497
64.04179079
64.252562
63.14882413
62.76782456
63.13199483
63.67410774
63.44897074
63.41990243
63.46929048
64.12207108
64.10209699
64.0790754
63.19307707
62.46083697
63.35866246
63.15369736
63.81070332
64.33031772
63.77789752
62.62099329
63.03132
62.42551674
63.54955174
63.90062933
63.13078984
63.41397638
63.04909761
62.82511856
63.38725913
63.24719385
63.49311114
64.09636327
63.34390028
63.30549547
63.87842015
62.51142477
62.44036292
62.41683037
63.39688981
63.77396455
62.75964618
63.56936792
63.86046971
62.52456044
62.95206851
62.95757308
63.38292293
63.59630759
63.52237018
63.30547975
62.88061343
63.40281866
63.26221154
63.24981397
63.14357005
63.47968749
63.67504988
63.0655801
63.40627482
62.1353529
62.72850527
63.45825696
63.70099124
64.00458123
62.88748332
62.5001524
62.99444518
63.37111699
63.20847906
63.33185015
64.09765571
63.37732752
63.2831913
63.82651553
62.89968846
62.90907345
63.11176915
63.54563188
63.98666166
64.12640301
62.88772441
62.701602
62.54350327
62.91781381
63.20945574
63.67887432
63.94058668
63.23699487
63.14602557
63.77827176
62.6982944
61.99596688
63.12783412
63.66161382
64.09981544
63.09741805
63.01754931
62.90138153
62.83028893
63.45386438
63.24416188
63.38984861
63.28846871
63.37951352
63.24794815
63.47453579
63.02110697
63.00740727
62.95008363
63.18925509
63.78097848
63.8457397
63.51791061
62.68512497
62.39406646
63.52010207
63.35624691
63.33807519
63.39775164
63.30933438
62.84588819
63.94896801
63.4246855
63.35306498
63.34884103
62.93609572
62.93938434
63.23213668
63.68959419
62.86345178
63.33050986
62.6499743
62.72318798
62.65168696
63.50622958
63.1882325
64.10224118
63.6182311
62.91043553
63.25066859
62.43240202
63.23541146
64.05308139
63.93321042
63.83513151
63.1609073
62.18895454
63.33840003
63.95616461
63.14089037
63.36946451
63.14691039
62.80354927
63.89816285
63.49778438
63.27088816
63.47139097
62.76834809
63.28794791
63.10063524
63.61675034
63.39453214
63.39147124
63.17313923
62.96715354
63.52707011
63.62432916
63.32406052
62.7993675
63.20815845
63.00616316
62.51905411
63.32039288
63.35961662
63.3008477
63.18645338
63.98123029
63.67051415
63.15361935
63.38169342
62.62192925
63.13351338
63.22962366
63.39354637
62.95612342
63.40344506
64.02566137
63.36159151
63.0429718
63.01287514
62.93597492
63.07302017
63.69421522
63.94704683
63.27508865
63.39537096
63.53340544
63.24425504
63.63071765
63.6526426
63.14166252
63.41093983
63.32228769
63.375842
63.3438807
63.36066839
63.32549014
63.26002173
63.4877223
62.95531804
62.88059288
63.43675376
62.7072634
63.07114089
63.4566156
63.83337618
63.3657666
63.0070073
63.17538032
63.42059267
63.49417174
64.31191352
63.08293926
62.37163001
63.31899029
63.39762367
62.98310075
63.16387157
63.84183904
62.93326728
63.19544305
62.93760877
63.00620915
62.57773085
63.61757328
64.06147055
63.40281292
62.6694534
62.65942801
63.1041628
62.85895008
63.91741343
63.90852571
63.56470893
62.99669483
62.15647571
63.24505808
63.25087572
63.28419752
63.20026819
63.35780699
63.69641899
63.31375198
62.80445279
62.80773397
62.9202551
63.19083076
64.04059459
63.1848032
63.02855083
62.55642382
62.77717098
62.78455317
63.26978623
63.72240188
62.88744215
63.17736332
63.32341441
63.18489901
64.13397907
63.36879171
62.9194844
63.57813063
63.57423598
63.61422755
63.54363709
63.15810248
62.75523853
63.13608317
63.39787545
63.84989713
62.7995432
63.07030169
63.49552616
63.0608925
63.84848714
62.89089156
62.76580865
63.45245148
63.64471917
63.57065873
63.80633805
64.19021549
62.91325789
62.33906786
63.40437142
63.77126473
63.4171643
63.30965822
62.96584882
63.01899309
64.00468546
63.19070343
63.45868539
63.21457822
62.84003934
63.246575
63.7812638
63.30000405
62.42023818
63.20684647
62.8185147
62.62695795
62.88374225
63.86539186
63.38356153
63.43467217
63.24367007
64.04082026
63.00215926
63.27073093
63.74988088
63.26182242
63.22973157
63.78966645
63.04113359
63.252694
63.29451732
63.75769144
63.58643995
63.21740961
63.33867973
62.80013745
63.17811432
63.41075607
62.8788676
63.1255486
63.4690316
64.03111982
63.44351765
63.19542171
63.28139197
63.23767641
63.32734696
63.27695856
63.21907573
63.31613167
63.18100705
62.73336269
63.35408626
62.83198854
63.10512929
63.63887799
63.60278536
62.61252062
63.29715665
63.22775126
63.27118218
63.24668527
63.24774478
63.27788747
62.69655158
63.20950321
63.28673424
63.22000636
63.29995738
63.15975336
63.70483924
63.54307785
63.73147157
63.23402804
63.264735
63.23524585
63.27912241
63.20087765
63.79884915
63.36007379
63.28299891
63.2675788
62.7266968
63.24110639
63.42392604
63.20285592
63.43220125
63.78756747
63.26702191
63.39377108
63.22814666
63.27238205
63.24892902
63.29634585
62.57410126
63.0445804
63.29889696
64.10394146
63.69226352
63.30552536
63.35227921
63.41296306
62.98513603
63.04933518
63.48482093
62.92633418
63.05865343
63.35470894
63.32427532
63.32353193
63.30041931
63.38173306
63.33917634
63.36826813
63.34430318
63.36872453
63.34607962
63.37509316
63.32628732
63.39769294
63.28993074
63.46824612
63.08897258
62.99361754
63.35272747
63.53379971
63.63964842
62.84994991
63.54646821
63.29660692
64.39529811
63.0323913
63.78063204
63.27600729
62.53782268
62.79202852
62.55931984
62.99677204
63.44069287
63.79532655
62.98607727
64.24280599
62.95655356
63.29242146
63.13197996
62.51795348
62.74383712
62.60855067
63.67644755
63.63662662
62.47758745
63.13886449
63.89638412
62.70395815
63.85563445
64.16428127
63.07809247
62.67029735
63.20114813
63.67654478
63.55684004
63.91149128
63.76797208
63.19949835
62.86321338
63.19941508
63.36509068
63.10757001
63.58451267
63.46285928
62.95276032
63.02381707
63.72730705
63.17166355
63.77837911
63.33566196
62.61023418
63.63281671
62.52667666
63.10696017
63.40603048
63.28901448
63.23581057
63.79245377
63.95116746
62.52238956
63.02966164
63.55339244
62.49266039
63.34855682
64.21809759
63.30184171
62.93945173
63.97517128
63.25920704
63.53452152
63.28300668
63.61618595
63.66199781
63.24119799
63.78169974
62.69231224
62.58196484
63.7752519
63.43220476
62.51276086
63.08749363
63.89502484
63.93811625
62.88839107
62.72019544
63.24961272
63.67019883
63.62628249
63.75932537
63.30575638
63.37580048
62.82784757
62.76144104
63.18112534
62.84062018
63.62722622
63.49417143
62.97034827
62.88445887
63.31431803
63.24072034
62.80587166
63.56473762
63.66597571
63.53585062
63.98414993
63.48427448
62.39983416
62.71612008
63.40567373
63.30946897
63.03946632
62.84104002
63.53643856
63.97211824
64.05283761
63.90313767
62.90808174
62.90873697
62.87699604
63.32828386
63.75709576
63.0265585
62.667431
62.7663791
63.23252029
63.30223041
63.30463326
63.27860093
63.19581854
63.70007539
63.59110582
63.05883974
63.01378409
63.41233167
63.3205351
63.95589256
63.92586183
63.56100315
62.65171998
63.16440448
63.24324317
63.42956097
62.91604939
63.31985738
63.72564118
63.07905382
63.59514119
62.75466431
62.3446605
63.79441778
63.56359164
63.56895448
63.64643356
63.45902474
63.00908491
63.15423084
63.6360371
63.71322287
63.22692799
63.50998778
63.67714691
63.39779873
63.2623003
63.67528359
63.75540035
63.64871502
63.44489362
63.12524986
63.36046156
63.30212721
62.97644534
63.3361971
63.7565377
63.52312172
63.02123923
62.93977754
64.03047075
63.32757103
63.42809178
62.9555611
62.62626435
63.44507713
63.09528672
63.90908866
63.76531528
63.42208828
62.98958398
63.26671119
63.17501281
62.78712104
63.51795595
63.69700995
63.35441978
63.15522534
64.03999599
63.59026437
62.83993625
62.98233355
62.94799717
63.61857664
63.92507587
63.98066515
63.23544382
62.59124959
63.07803358
63.98168739
63.12726347
63.75002555
63.41018949
62.77554134
62.9157095
63.34013209
63.67770373
63.18469223
63.41700595
62.6895798
63.16652086
64.02403614
63.64747706
62.24557779
62.77445524
63.74943257
63.62332387
63.12806401
63.66629938
63.60351595
63.21146515
63.87539613
63.24477808
63.36106299
62.73106096
63.19876368
63.55492359
64.0170998
63.26111162
63.55602718
62.93898685
63.31054566
63.85293532
63.27626763
62.92367249
62.60295674
63.57501405
64.09741912
63.05762251
62.9609803
63.07066839
62.87204198
62.58097787
64.0656058
63.53000994
63.25987332
62.74784309
62.59791865
63.10398697
63.36374333
63.30742738
62.97411259
62.46045478
63.58536316
63.45585167
62.51299116
63.26503123
63.40685288
64.08752836
63.91976898
64.05047785
63.78947569
62.90644758
62.61117324
63.596209
63.76296705
63.16476657
63.46440655
62.90815492
62.9312909
63.33428063
63.38366358
62.99570007
62.9940544
63.29194771
63.41018308
64.05621918
63.81873409
63.42888009
63.07751092
62.55664589
63.27391772
63.83481651
63.25393743
63.30343173
63.23055292
63.26959544
63.3382345
63.7253934
63.49363307
62.78228523
63.53070005
63.99499806
63.37155806
64.13418077
63.88222877
62.77224037
62.77105575
63.8590349
63.42182883
63.28878842
63.30617846
63.25615293
63.42575653
64.05813963
63.61708653
63.12690949
62.83165521
63.20696846
63.78761857
63.45649558
64.11449837
63.23138074
62.55642815
63.41765469
63.25664743
63.37443984
63.20342173
62.67746168
63.77227255
63.53672625
63.21285064
63.57007084
62.86536922
63.14885333
63.24119129
63.57110812
64.11580743
63.78592567
63.34877147
63.38920426
63.34381617
63.23717583
63.38775898
62.80842128
62.55759071
62.850742
63.75629681
64.17511605
64.900147
63.43354828
64.47907916
63.41651216
63.67966723
64.4793482
63.40481688
64.60777914
61.84808516
66.62567739
67.74172932
66.75853986
65.82453146
65.32508939
61.52234912
58.66037336
55.12909318
53.35582397
59.96101272
60.97632062
60.95923126
60.36746922
62.06031529
64.22838158
69.66856053
72.79222174
72.41399791
77.08444898
72.64960443
67.53326482
71.25823072
63.95550547
61.54592963
60.61240351
57.94436455
56.67251799
63.13030804
56.19769876
58.66228994
58.3973354
55.08972341
64.35206822
68.51067387
69.87642901
73.22860221
55.61648622
49.28081028
49.38769895
103.8773343
63.2149099
53.89044605
64.26336359
64.91958292
65.69538431
67.38499168
65.93053586
62.07762569
62.82586175
63.18781571
64.50746904
64.76576416
66.8420223
63.36031727
63.69028878
64.18675547
60.65446089
64.34248833
64.11161523
61.74825617
63.95063859
67.61490942
66.55020931
63.0547043
64.95022207
55.2937956
47.66671772
59.77312552
49.14439562
85.99679035
78.42706751
56.68684745
68.14289796
64.72565774
65.19385621
63.43637786
62.70487007
62.01478759
62.89892082
63.65437386
63.27721382
63.52015943
61.94518594
63.11106745
63.48815201
64.65028164
64.57340936
62.78098386
62.22408823
62.80292183
63.2140222
63.11620984
63.04984141
63.06290658
62.36089776
63.02267057
63.12193083
63.19818015
62.75361637
62.7002321
63.37532115
62.23965499
63.17669037
64.14040679
63.19577743
63.45482546
62.75337798
62.77162327
62.7693984
63.12160366
63.20170739
63.20057418
63.27913842
63.36343886
63.10638337
63.17406485
64.00182394
62.66706638
63.12618817
62.45706725
62.77985874
63.26865676
63.79499303
63.36174502
63.24968636
63.3998403
63.18324478
62.38683713
62.35277947
63.21076735
63.29962861
63.55108712
62.94904307
62.51995912
63.3309007
63.45198019
62.89883288
63.0952303
63.53187977
62.70493572
62.58703783
62.73751769
63.44385821
63.19687338
63.74031973
63.19653425
63.07237642
62.77004506
63.41715119
63.27814176
62.3742548
63.29049412
62.44160411
63.06566248
63.72662964
63.27779967
63.10574101
63.85803826
63.47557456
62.57899885
62.68837058
62.65444058
62.71574295
62.54745945
63.17107383
62.64776683
63.48060495
63.81288076
62.96490296
62.69752121
62.96300239
63.76505778
63.00710518
62.86098631
62.82315151
62.69308457
62.79321214
63.4573081
62.68681825
62.69461405
63.36447207
62.63894559
62.65122012
62.56735138
63.04305425
63.27622073
62.5594443
62.81920672
62.59577043
62.81232604
62.89141794
63.5531756
62.79760277
63.08446317
62.78355869
62.85179835
62.78001644
62.87024127
62.90782428
63.32478195
63.76032645
62.65608654
62.83496683
62.79125005
62.86055913
62.90606251
62.9317934
62.75432717
62.71506553
62.87447074
62.77308183
62.87221493
63.52833926
62.83520062
62.76882006
62.924591
63.29199395
62.55638403
62.53558464
63.53188015
63.51460326
62.71085337
62.84175242
62.85103908
62.69498814
63.50426987
62.99443063
62.80517494
62.72585708
63.58767334
62.81561588
63.21907507
63.33447974
62.63268455
62.92836916
62.74306271
62.88110633
62.73381323
62.6684724
62.84178023
62.80287587
62.82722252
62.80985701
62.82413706
62.80848935
62.82256255
62.81324943
62.82137464
62.81288542
62.8205184
62.80853239
63.53832092
62.87573716
62.75656274
62.90755612
62.6653065
63.27866678
63.4125249
63.46809353
62.92962507
62.75434352
62.86955475
63.5536937
62.77476762
62.98014645
62.88414111
62.79557801
62.82548178
62.81853883
62.80558316
62.8341964
62.79020107
62.86313173
62.72589517
63.19448656
63.92028634
63.61754044
62.86034399
62.76686537
62.89209347
62.71186816
63.47704342
63.22490045
62.73133515
62.81017308
62.98736271
62.81888964
63.05980183
63.64692752
62.80564445
62.97145353
63.01190932
62.98681896
62.7847289
62.99207727
62.91743531
62.93644883
62.96908159
62.84256207
62.88670522
63.1190786
63.01080832
62.83357708
62.80005526
62.98867725
63.11593521
62.93353294
62.94190376
63.10599917
63.00181362
62.77641
63.00728457
62.84692643
62.8087513
62.8123539
63.00076703
63.09534592
63.03499908
63.10202876
62.79880173
62.91839302
62.94878005
62.93684985
62.93165795
62.95975923
62.78431534
63.02671302
62.79474837
62.94070399
63.10205668
63.01736907
62.78639431
62.96513708
63.09434698
63.03957956
63.10287363
62.8736754
63.02928345
63.06522268
63.07954644
63.01885727
62.91216744
62.94621625
62.94817127
63.84362038
63.04574809
63.07046633
63.06751992
63.04835816
63.09734048
62.88700164
63.0109582
63.03528241
62.75127998
63.03613238
63.04940656
63.09508573
62.9033688
62.80719363
63.07502451
63.0714271
62.90771542
62.96335053
62.89567492
63.11452217
62.83505164
62.86224398
63.09009446
63.05173842
63.05411706
62.77701096
62.95833395
63.09355606
63.0161311
62.81692089
63.7042464
63.18395991
62.73225237
63.54251046
63.43542811
62.91747065
63.15628643
62.98699833
62.99595729
63.56514267
63.0221977
62.94382493
63.72503063
63.10999205
62.89157401
62.99212791
63.09109363
63.04792916
63.07544839
63.05151515
63.07005109
63.06021471
63.06633346
63.06129275
63.06353666
63.06470143
63.0586616
63.06703118
63.06264175
63.06854619
63.05992325
63.06387063
63.06387063
63.05992325
63.06854619
63.06264175
63.06703118
63.0586616
63.06470143
63.06325355
63.06200936
63.06489514
63.06284509
63.06575241
63.05823938
63.06575241
63.06284509
63.06489514
63.06200936
63.06325355
63.06470143
63.0586616
63.06703118
63.06264175
63.06854619
63.05992325
63.06387063
63.06387063
63.05992325
63.06854619
63.06264175
63.06703118
63.0586616
63.06470143
63.06325355
63.06200936
63.06489514
63.06284509
63.06575241
63.05823938
63.06575241
63.06284509
63.06489514
63.06200936
63.06325355
63.06470143
63.0586616
63.06703118
63.06264175
63.06854619
63.05992325
63.06387063
63.06387063
63.05992325
63.06854619
63.06264175
63.06703118
63.0586616
63.06470143
63.06325355
63.06200936
63.06489514
63.06284509
63.06575241
63.05823938
63.06575241
63.06284509
63.06489514
63.06200936
63.06325355
63.06470143
63.0586616
63.06703118
63.06264175
63.06854619
63.05992325
63.06387063
63.06387063
63.05992325
63.06854619
63.06264175
63.06703118
63.0586616
63.06470143
63.06325355
63.06200936
63.06489514
63.06284509
63.06575241
63.05823938
63.06575241
63.06284509
63.06489514
63.06200936
63.06325355
63.06470143
63.0586616
63.06703118
63.06264175
63.06854619
63.05992325
63.06387063
63.06387063
63.05992325
63.06854619
63.06264175
63.06703118
63.0586616
63.06470143
63.06325355
63.06200936
63.06489514
63.06284509
63.06575241
63.05823938
63.06575241
63.06284509
63.06489514
63.06200936
63.06325355
63.06470143
63.0586616
63.06703118
63.06264175
63.06854619
63.06021048
63.06321881
63.06511122
63.05778902
63.07200878
63.05722544
63.07578861
63.04453796
63.09192564
62.95050813
63.01211449
63.08292789
63.05482742
63.06715543
63.06594007
63.01962273
62.8670985
63.03147158
63.07628732
63.04764924
63.08798841
63.01398249
62.96975481
62.97711423
62.99676549
63.08915466
63.0472582
63.07452307
63.05346734
63.07205952
63.06150691
63.06602646
63.06194058
63.0588885
63.07271996
63.0468003
63.09337051
62.96832906
62.99203111
63.08419991
63.051488
63.07179123
63.05917677
63.06564474
63.0610406
63.0659617
63.05802173
63.06729447
63.06264175
63.06854619
63.05992325
63.06387063
63.06387063
63.05992325
63.06854619
63.06264175
63.06703118
63.0586616
63.06470143
63.06325355
63.06200936
63.06489514
63.06284509
63.06575241
63.05823938
63.06575241
63.06284509
63.06489514
63.06200936
63.06325355
63.06470143
63.0586616
63.06704747
63.06274966
63.06852075
63.05988898
63.06402709
63.06350548
63.06090977
63.06693685
63.06523706
63.06298309
62.91653573
62.8725848
62.99921315
63.07143671
63.07174937
62.99719402
62.86756843
63.05981663
63.05093981
63.08925413
62.91986541
63.07494377
62.97685808
62.9884148
63.07592022
63.07431431
62.97849282
62.8871317
62.88866445
62.95234296
63.08651607
63.05313769
63.04447538
62.85611672
63.03608798
62.91665338
63.1007779
62.93384983
63.2095473
62.93108496
62.88958788
62.88872519
63.06295645
62.99372912
62.98012492
62.95647437
62.89479628
63.10037171
63.03825723
62.96023983
62.98847212
62.96912625
63.09351957
63.04676342
63.07229719
63.05838291
63.06312543
63.06732404
63.0619708
63.07004766
63.05302102
63.07425614
63.04827427
63.08631322
63.02077592
63.21104466
63.16830038
63.03657637
63.03255251
62.86573545
62.9175899
63.04484156
63.07129531
63.06071816
63.05985295
63.06816243
63.05912692
63.07504005
63.04861472
63.08683551
62.9536026
62.89005711
63.07230801
63.06487864
63.05748518
63.08113534
62.98982672
62.96861733
63.09763703
63.03847719
63.09447637
62.93837845
63.02756333
63.07782419
63.05607963
63.06899151
63.05944653
63.06475057
63.06419565
63.05843592
63.06795541
63.06067089
63.07395526
63.03539849
62.90852096
63.27325133
62.98571761
63.03931838
63.08008934
63.0517389
62.93646263
63.05923294
63.07263658
63.04746424
63.09183953
62.97088912
62.98780747
63.09055266
63.04182182
63.09067656
62.9202802
62.9167059
63.08190066
63.05389184
63.07006337
63.15857626
63.2263315
63.21856023
62.90858609
63.47028174
63.36558018
62.72562755
63.3646583
63.56793032
63.90870106
62.59363834
62.21859587
62.83208523
63.70995856
63.39226646
62.63489392
63.23533468
63.31060004
63.03788413
63.2122758
63.26726738
63.28096439
63.02758714
63.19053651
63.16069061
63.3099113
63.43903065
63.32773788
63.05908318
63.06649953
63.23462895
63.02019968
63.44842045
63.97597149
63.08597365
63.3346996
62.86990168
62.6998145
63.3366681
62.92787976
63.19222263
63.23967264
63.22837506
63.29556325
63.35859948
63.11769091
63.30066303
63.33116292
63.32703474
63.31223303
