8.730747826
12.87340684
11.28980852
11.69993344
10.79950687
11.19656205
9.890927652
7.102055881
1.193518734
-9.194265542
-20.53019946
-29.40905771
-40.72521958
-57.11238914
-65.01714279
-49.08182839
-16.35777124
13.86920449
31.38406845
36.48299223
33.96147316
29.11415689
25.97173166
25.60840897
25.9070435
24.34329201
19.37648929
10.34154359
-1.148787235
-11.95135999
-22.73409881
-36.92210388
-54.01469416
-61.42849105
-42.64724045
-4.429779011
29.27189388
46.5448729
48.78586565
41.99571049
34.57395099
31.1847946
30.04496731
29.80197837
29.58409159
23.36633238
9.092621575
-4.792502841
-14.51242078
-27.96162019
-48.01244553
-58.74066576
-41.05533224
-1.571702632
34.00037792
51.17711793
50.52903602
39.76702184
28.86219646
20.93275234
15.57240373
14.13722473
13.54590974
6.726238199
-6.983605722
-19.67739325
-30.44025859
-47.42895208
-65.84572794
-63.48570749
-30.62245194
12.72117424
42.32871266
52.21253638
47.6853529
37.99400042
30.13388032
23.75984849
18.98208455
16.86005291
12.08038293
0.286105054
-13.6016757
-25.26985357
-40.89648397
-62.13991128
-70.56153747
-48.03893716
-5.556314268
29.84238586
44.76599675
42.83607653
35.15957631
30.40129535
27.75223426
24.14754554
20.68905423
17.29348213
9.508092938
-4.043423194
-17.24789088
-28.00053482
-42.99126767
-57.38897375
-49.1475766
-13.29856372
25.16679913
46.34885664
50.96997005
45.56985485
37.49533516
31.41691276
25.49940484
20.21457054
17.78360618
13.74854099
3.939286294
-6.68508672
-14.39142245
-23.60772363
-37.95848205
-51.34195237
-46.15848583
-16.64268321
17.65053408
39.35091587
47.34178716
45.14712896
37.51471344
32.01521872
30.32778958
27.63153461
23.6065398
18.98775943
10.88873211
-1.050737727
-13.25611033
-23.06273975
-32.79582864
-46.36154225
-56.68443788
-47.0063754
-16.24005911
15.29906283
32.49499905
36.70275022
33.79770399
27.99781682
23.30243384
20.94379241
18.90152182
16.00285983
12.42700821
7.641054074
0.363482489
-8.442640812
-17.20009996
-26.39651656
-36.37698087
-47.07787753
-48.47235909
-27.86887391
2.919354677
23.12277955
29.53798472
27.56995663
22.77129105
19.0932775
16.51018332
14.68361427
13.66273051
11.43843798
6.60034554
-0.280761124
-8.981008205
-19.21406373
-28.96334952
-37.59197893
-49.45974853
-63.80320766
-66.16853716
-48.97165701
-24.31806363
-2.705388992
14.16052133
26.43819417
38.11761889
51.66572386
68.93062384
84.56221183
82.9981329
66.11444939
48.18141337
31.3677718
9.262549193
-20.08473541
-45.30118344
-58.90276359
-69.52129316
-80.27772731
-76.78073159
-51.82250047
-20.38183012
7.213576923
34.24886587
59.21703719
70.14929382
61.38768203
48.08978107
47.495575
58.58086558
63.52778531
47.91690364
22.34591258
8.337246255
5.278403002
-11.36092364
-41.6627041
-47.73457326
-19.665738
13.96732006
40.79652882
62.95189828
71.3756998
56.86186471
29.97200962
9.051530412
-4.123697449
-19.86319834
-43.87858051
-73.75092795
-104.473498
-136.8482215
-166.6608041
-171.137799
-146.56893
-114.6692566
-78.39525543
-37.74153654
-4.358065194
17.2694799
27.11417327
27.94237464
22.64032762
10.48913578
-2.781324852
-9.24286764
-14.39471374
-28.80243229
-43.9112867
-37.92485862
-21.07553235
-27.95361543
-48.82413743
-41.96463445
-0.106559395
43.7163157
63.09908582
68.36339418
70.00162961
61.7481689
47.55110451
25.6287128
0.049430362
-1.231889112
12.92733163
9.350488213
-8.54963934
-29.82027755
-49.81601415
-61.25575611
-65.61894618
-57.65111271
-31.97218284
-5.471917832
8.209239397
18.92102746
33.80578503
39.59379686
25.94810383
16.59194789
39.64960766
76.20987085
81.17304118
42.14960752
-7.859382456
-48.40919767
-86.69623869
-112.6993639
-108.1072256
-72.27993784
-25.10037992
12.14806746
34.27435904
44.63173991
51.51902476
57.56750452
61.76723639
72.09131416
83.7621025
83.39789984
84.66773202
98.49766136
104.2544837
81.11120957
39.64744012
18.69874923
37.09252035
74.74706057
93.50712914
67.64665496
21.86756819
-15.39669522
-51.84984774
-72.19208675
-46.37701711
-4.447940744
11.42004052
17.87085197
35.96232154
58.61428764
74.81527083
75.98607414
71.88063219
79.71906873
75.38205093
31.05698457
-3.25083254
20.07883469
57.24085209
36.63884248
-33.52679924
-77.44908678
-82.97442848
-81.66539337
-75.18653971
-67.92426165
-50.5717334
-13.32975331
11.18453488
4.784161174
-1.992003368
7.592727644
15.32729078
12.87113643
3.033438851
-15.55212546
-36.51359291
-59.02349409
-94.01414788
-138.4344093
-176.1406575
-205.4078798
-235.4119459
-257.7687764
-249.4709455
-204.8481713
-154.6400884
-126.3043859
-103.8903773
-69.23629742
-27.81845417
12.21418043
40.88199418
55.64650728
70.29215003
94.96553651
123.505384
145.5708748
156.8280546
153.0069064
130.0372771
91.5012177
49.52182982
27.19191502
30.63024216
29.41218557
11.66839111
-1.998958065
-9.528727914
-28.16224986
-60.70554786
-86.58102558
-92.32550026
-85.17640597
-70.08868833
-48.83218318
-28.12926847
-16.22833228
-16.87717782
-14.46438226
10.34209111
45.21019866
66.87842767
73.48682848
71.42004964
62.2397983
50.69185205
42.69190232
35.81308174
27.64306156
20.1552665
13.32998308
6.638315889
-0.149169083
-7.592186391
-15.20316536
-23.52344977
-35.85203901
-48.80510146
-47.93000327
-28.37602505
-2.330837153
18.15321809
28.5306662
30.89658292
29.39138298
25.76385403
22.02371834
19.29989576
15.63785149
9.448958087
1.517837887
-7.451747098
-19.04996282
-32.1130093
-34.81187248
-18.42046817
6.805368926
25.97471585
34.09740783
33.75766544
29.63873739
24.53512598
20.20370208
17.08110498
13.29087767
7.519434091
0.014451733
-8.520824124
-18.74597188
-31.90659663
-39.36306149
-27.54699773
-2.393680956
17.8303474
27.59890698
29.20816581
24.67173816
18.36519889
13.5196426
10.84513885
8.787928166
4.920336535
-0.735954248
-8.312156119
-19.52235076
-33.07781898
-38.25451146
-25.02215057
-0.957602278
18.85884407
29.11247625
31.51888464
28.29267384
22.48867898
16.83397752
12.32836495
8.577779314
3.597533118
-3.557540965
-12.32784522
-24.1105483
-37.05249877
-38.65771616
-21.37302212
2.913978692
19.958039
27.45995088
28.17408059
24.78969452
20.10739253
16.92505743
15.71565278
12.60305671
4.324339457
-8.569347755
-26.70964606
-52.02553786
-73.78890157
-68.42079259
-31.8065845
11.53174553
40.91905005
53.44202864
51.19254365
42.90595482
44.11045806
59.98787165
75.61633898
65.91653287
31.49075607
3.945081059
-9.781111797
-36.57213874
-83.99717086
-123.0620729
-117.351858
-65.82440017
-11.98694345
12.30172059
16.51186413
15.30125264
12.7525914
11.50998793
10.62206463
8.026493511
4.195082669
-2.79725094
-13.75424208
-27.33002476
-41.3961254
-42.02707641
-18.58670958
13.23264481
33.63699632
41.08186566
40.34617351
34.09158321
26.40402122
20.31557679
15.30954438
9.378907098
1.810588167
-6.317815417
-15.11575098
-26.58989031
-39.25317156
-40.061243
-17.77654644
14.73055135
37.96004079
47.72054975
45.95216704
36.58053241
27.4734118
23.0105833
19.99982681
14.16102939
5.870894651
-3.25549433
-14.26427298
-29.97975266
-45.33185161
-42.31680674
-14.83502103
17.110671
36.32744185
43.54122985
40.84084723
29.19209627
16.26745574
8.500758815
4.73201127
0.993197563
-5.136965882
-13.58454328
-23.90004396
-36.90203587
-47.61060355
-40.49001185
-10.20963428
24.1014562
43.95864578
49.61915823
50.36595353
52.53066112
53.78408255
55.48144803
68.46479465
90.66416336
97.35935504
71.35982067
31.33534829
-5.356083462
-47.79539577
-84.57526347
-88.32019707
-73.24697679
-71.41827583
-81.13104678
-86.19598632
-76.68315325
-48.58921233
-15.54897895
3.460151226
8.569016647
7.614915782
0.699784434
-8.440066795
-14.28589394
-20.51602519
-31.61681051
-38.71126304
-26.7872324
-0.799916466
21.624963
34.16461827
36.19681192
29.49266117
21.28580928
15.03587784
9.981756187
6.06285372
1.638670797
-3.884031665
-8.820618822
-15.01960305
-27.36240666
-40.58688403
-36.8591285
-12.35250777
16.64401727
37.73562154
44.65050122
37.01862244
27.34138207
27.19932891
38.32375445
52.98248364
61.70981162
70.65592509
72.50949899
46.79030505
8.525592344
-23.59635614
-43.71747384
-38.72703786
-23.56682426
-25.38151622
-33.25143964
-26.99203742
-13.5597864
-4.952053333
-3.005648308
-8.171724118
-16.60672811
-22.44175713
-26.48570704
-33.95873682
-46.80886994
-53.85831024
-40.02355827
-10.89242947
15.11511088
29.16449532
31.51676822
25.46046347
16.40072314
9.127636521
4.774218117
0.976457899
-4.420178735
-10.66533012
-17.94053916
-29.77925962
-44.26161254
-45.6537821
-22.32902546
11.92636292
35.05267035
41.27111833
36.65750303
26.99108809
17.69614072
12.36465889
8.070845307
2.086088479
-4.529140633
-12.77778909
-25.27390491
-41.01614884
-48.09394162
-31.71455413
1.104565139
29.42396937
42.95660379
41.91970057
32.48162072
22.45440515
14.87588134
7.836003612
-0.496959729
-7.767158415
-13.76131454
-22.49029143
-35.92011107
-45.94835345
-35.98213445
-5.220632162
27.10288674
46.04468217
48.45701719
37.31027755
21.31528692
9.835414934
3.553938046
-1.715951515
-7.9985157
-16.10763313
-26.31786616
-40.14135846
-52.47264554
-45.82976079
-14.94796986
20.36761053
41.92778119
47.17902197
39.2063219
25.47698751
15.38901053
9.339563841
2.24023107
-5.527928078
-12.05668327
-21.28378403
-37.08719358
-51.73662609
-46.13664956
-14.85022088
21.2324985
42.50036601
46.35320353
37.34018418
24.35065244
15.3387696
8.711074853
0.170902641
-8.278612924
-14.23221952
-21.51097698
-35.23422136
-47.61216768
-38.48481487
-4.867759971
29.81410786
47.03374297
47.13828058
36.93477327
24.96263795
17.12636144
10.546134
1.421655122
-7.900285759
-16.06700414
-25.63929067
-38.46200128
-48.46242815
-39.66582192
-8.180966842
26.17250726
44.236586
44.82482658
35.32015908
22.54320475
12.80022228
5.995532624
-2.677044958
-10.76272226
-14.40585984
-18.39462303
-29.91151199
-43.86725799
-40.87477145
-13.58939552
19.16517669
37.76317003
40.11608021
31.93274398
19.33090053
9.204099151
3.706741903
-1.098739718
-7.050866732
-13.45019239
-22.08943604
-36.10858714
-49.60966729
-43.88180085
-13.98184389
19.98668805
40.43115831
43.7331198
34.37718919
22.03657977
12.72621075
5.373140831
-2.213094084
-9.928313152
-17.12880628
-26.67772576
-40.88303776
-50.86985705
-40.115215
-8.339711477
24.08868661
41.80398054
42.66177961
31.46177683
19.094173
11.58449884
4.693557336
-4.400782319
-11.83476995
-16.30725225
-24.45603096
-39.92997754
-49.18181874
-32.7729709
2.665306233
30.21795266
40.03568092
37.38020689
26.70378359
15.91346553
9.786558797
3.708317654
-4.310025493
-10.77369746
-17.1430848
-28.74599194
-44.42390889
-49.76001445
-29.17125528
8.174732885
37.36698241
47.45000264
41.15373012
26.15324442
14.0129911
8.537244099
3.015119958
-4.83326285
-11.37612937
-17.87713552
-29.16551362
-44.15478097
-48.86534314
-27.16279299
11.50654748
40.0824325
47.95033201
40.52595834
26.099077
13.61292119
6.694989317
1.975909026
-4.339884579
-12.07631342
-18.83254499
-27.13215448
-41.56671813
-51.64102569
-37.20424624
-0.480497511
32.79272418
46.19664145
42.65258052
29.91643983
16.63206988
9.676582215
5.458731494
-1.629496265
-9.689819127
-17.25844663
-26.87481119
-41.37241734
-54.58510567
-46.3867338
-10.77103263
27.66370634
46.13816127
44.70786753
32.39152733
18.61385695
11.05723653
7.527785172
1.420927114
-6.505526096
-13.41566814
-22.65802587
-39.09454575
-56.31087058
-53.49260092
-21.44975673
18.21865205
42.08328498
46.60890696
37.47414095
24.78190611
16.67773559
11.4113885
4.385152005
-4.056258568
-12.37964056
-22.11270227
-36.09485148
-54.70504236
-61.63100707
-35.03147348
11.66629586
43.81103069
51.94696536
46.37151005
34.90038472
24.31795002
17.87215347
11.78830046
4.164963756
-4.223663794
-13.75713873
-26.08936511
-44.42005171
-62.87607429
-58.10495191
-19.17975928
26.89511191
50.97009506
52.62739604
43.06714599
30.93748789
21.90256822
17.44191665
14.55533757
8.499182938
-1.307911417
-12.43244942
-24.90416739
-41.68698855
-57.15340622
-48.35419768
-10.4300613
26.46137979
43.30137091
44.46065913
36.73637272
28.00658617
21.19380024
14.72549175
11.28993069
7.679446334
-2.898403008
-15.22163103
-24.62898134
-38.29911356
-56.64094594
-58.74718972
-27.18498146
18.55929204
46.9224802
52.64329084
45.90596233
35.5331555
27.29809796
21.65850147
17.67857292
14.76956256
7.824305791
-4.920023658
-17.07887341
-27.05684105
-40.95042721
-56.51724949
-51.61622098
-15.42862716
25.59092711
46.44988732
47.8987723
38.94487494
28.69203611
21.74358123
16.53214551
12.07529784
7.925997708
-0.242566243
-12.93784082
-23.2027025
-31.11291069
-44.8876111
-58.45027549
-49.03942209
-13.099302
23.54463478
41.38163005
41.36144763
32.03969679
22.51945242
16.87762092
13.38557268
10.4870179
5.41052696
-4.216466164
-14.66977766
-23.3413238
-34.09993033
-47.10594942
-47.34313982
-22.06144379
13.85659383
36.98486138
41.80038938
35.07505618
24.82784635
16.19458144
11.28077406
9.417975805
5.551427883
-3.378572601
-14.1526891
-24.15076123
-35.0746906
-49.44197783
-56.09704915
-34.87796339
5.689412578
34.14579559
40.244311
35.02712696
27.90419291
21.6072677
15.63828188
10.62242948
7.303217473
2.072557914
-8.087425968
-18.1180732
-24.80911687
-36.0824643
-51.5181411
-48.79404758
-17.49617489
19.76831815
41.162941
43.72673239
34.4608152
24.76676689
18.78513241
13.12106531
8.590113409
5.756168302
-1.082913182
-12.08830705
-20.75298929
-27.82269972
-39.55991988
-50.21466313
-40.37285956
-7.522314201
24.81245237
39.70669727
38.40580561
29.51117715
22.34571684
17.76247942
12.93098249
10.42410038
8.912120934
2.228632098
-9.587519368
-20.29692931
-27.40113785
-36.98157547
-48.80223687
-44.88313102
-16.68680393
16.53185666
36.02877246
38.78738342
29.2220096
18.07043456
12.38699554
8.932086325
6.583671146
5.884554633
1.045457297
-9.178890522
-18.17296629
-24.83400574
-33.72051793
-44.89287831
-46.53499677
-25.76245237
6.682063179
27.98162564
32.43752117
25.8457325
15.58764622
9.946986612
8.864408042
7.870517876
6.419534729
1.874569712
-7.286681364
-16.67775168
-25.4910835
-37.11743387
-48.22539881
-43.44350756
-15.4893131
16.3323966
32.91872298
35.1996595
29.3991702
21.73678531
16.0754281
10.47473003
6.076495844
3.594676982
-2.427313399
-11.43552214
-18.14172784
-25.32851729
-38.75474215
-49.6049812
-38.25677444
-5.100723952
25.908768
39.0100201
36.46653539
26.37668354
16.76882474
10.76042217
7.596521741
6.182404636
2.565386865
-5.776226968
-15.1267111
-22.57477383
-32.39186267
-46.57849431
-50.9295832
-30.82434728
2.135335342
26.25536487
35.12604192
32.14340033
24.68524289
18.93363196
14.04113412
9.873795657
7.450506149
2.630703126
-6.448039329
-15.71425048
-23.04784429
-33.12343189
-48.94614664
-53.10227065
-27.62693702
10.18309764
34.73163671
41.80345053
35.25526583
24.31671594
18.65820685
16.17410956
13.87365265
12.4625751
7.169105113
-4.24567207
-15.02287795
-22.62919311
-33.32280987
-48.23245124
-50.89887324
-26.43181578
10.41691707
36.20787111
44.82668224
40.13488675
30.54810992
23.12705945
17.87568702
13.54387154
11.13498151
7.692585864
-1.254202611
-11.99470791
-20.11080292
-29.47037361
-44.19344046
-53.8410974
-37.97840214
-0.36579378
30.72420925
42.1349077
38.44962176
27.54690702
19.32665854
14.52170968
9.514518446
6.85821342
3.926869434
-4.43613211
-14.96873033
-23.13143333
-30.94193901
-44.16792773
-54.15089465
-39.52773282
-2.79471524
29.20726153
41.53469084
38.88516111
29.96818553
21.48357989
16.41089732
12.90441894
9.701604703
4.906661807
-4.180263535
-15.3746927
-24.82857351
-35.45842988
-51.46145664
-58.5921888
-36.67721276
3.573538036
33.66570417
42.8485603
37.81921292
28.96660599
22.41139258
18.29628146
15.94687971
14.28091172
8.70537451
-3.393450232
-16.48692035
-26.29203948
-38.88834162
-56.65420247
-61.33437948
-35.26959615
6.533960064
36.14562682
45.76605725
41.10386469
31.21668724
24.45804717
20.72107158
17.76707206
15.30293573
8.968472036
-3.040578281
-14.7701799
-23.3943703
-35.44938969
-53.55740274
-60.21919693
-36.1325134
5.871258055
36.95420497
47.3240329
42.39131237
31.76742293
25.31795692
22.82468396
18.77095037
14.96484026
11.82740822
2.715693733
-11.10878565
-21.80904393
-30.05591165
-43.20400193
-57.85055354
-52.30882445
-17.80423308
21.58980313
44.08418495
49.29681663
42.66820765
32.62288312
27.50592562
24.90610342
20.39289927
16.51548856
11.66146211
0.892899867
-11.75018287
-21.21241755
-31.07477708
-46.86979486
-60.96173003
-51.65601507
-15.5006692
21.8936037
41.87445257
43.80072487
33.87059195
24.5729748
21.3363141
18.65226944
15.11062753
11.71055931
5.777154234
-4.34528393
-15.37090614
-23.80371584
-33.60556862
-48.74150551
-56.028785
-36.73755556
1.194517238
31.90681811
43.79070326
40.29204388
30.38336309
22.3031937
17.00368016
13.01629577
11.10615559
8.516471773
0.034528145
-11.33334442
-19.5547615
-28.24532099
-42.96113859
-55.21909231
-45.40028369
-11.50520647
22.948459
40.53541393
41.54758769
32.92042413
23.87469901
18.35319096
14.02484677
10.45645988
7.899299315
2.345826644
-8.257963812
-18.68692074
-25.97353163
-35.89594005
-50.38504795
-53.86764595
-31.27026489
4.841305528
31.14237715
40.94693748
37.24522859
27.41753361
21.16146326
17.5431185
13.16235877
10.44960012
7.274889047
-1.372093839
-12.86477424
-21.45322891
-30.1810326
-43.99105463
-56.25808109
-50.90452585
-21.75089084
14.63278043
38.81813076
44.84036939
36.77376038
27.32231283
24.81124878
22.85462642
19.53825274
21.8874502
27.2206839
30.26267212
31.35310677
34.16768969
33.22919391
1.972481138
-55.83626748
-89.10327109
-77.17533501
-52.21818296
-28.33817321
-11.57257699
-18.37297583
-23.43214222
-29.21682401
-56.87696534
-82.31926674
-82.05850227
-65.49181025
-41.65628172
-21.13819053
-16.68485653
-16.61647871
-10.23554093
-7.96651412
1.124278004
34.29774215
68.32818036
86.04131862
96.50922342
100.2811173
99.49591896
104.5137118
110.3215481
100.154099
74.96150929
42.07423706
0.352490671
-32.08679415
-37.65178458
-30.25602064
-20.42356538
-4.440890021
8.655216557
3.856498486
-19.51188768
-49.13087722
-75.66968181
-98.86072379
-118.3126865
-136.5723062
-156.3284961
-172.1793564
-185.5089348
-201.4010811
-207.5832418
-193.1222623
-165.5669835
-129.841092
-81.16998249
-16.42888797
55.70960347
120.4044477
177.8649387
222.4779051
243.7874385
253.3565372
253.6206744
253.8271713
275.5948572
292.3327159
280.1272664
259.7740694
228.337724
179.4696243
137.4993726
101.659092
59.47549557
22.7589025
-10.57269133
-57.54553721
-109.7503185
-147.8867374
-168.8337244
-169.7032491
-144.7957571
-109.2103097
-88.12602592
-81.96961299
-82.22602032
-92.53274393
-110.2055643
-133.6678849
-154.2685529
-143.3837533
-103.4154461
-68.28229362
-46.78766942
-28.9934021
-19.66191857
-28.68218452
-50.17238378
-72.82756478
-94.46048655
-110.2741969
-115.1058325
-107.6434825
-70.39291273
4.746375952
100.3206061
186.8280142
216.4683746
189.7898036
154.7059449
133.1206045
122.8069904
102.5380268
66.57470703
37.28270234
21.33905555
7.305166318
-17.11556334
-39.73859966
-43.75785553
-43.31649433
-55.95024121
-73.52900674
-63.2636344
-15.31942442
31.13834352
56.98760687
55.85421675
8.772661628
-48.5360823
-57.47551774
-20.17595573
19.74323539
33.02704238
29.27667086
31.6183741
39.90313498
35.06546094
11.31960137
-8.793635451
-4.193460284
26.61082959
74.33127548
107.1864257
89.78996843
47.6261517
20.23809022
-13.19173631
-72.54267736
-146.907743
-241.7337776
-331.1984909
-389.5472906
-316.8706095
-71.52763434
137.8702678
234.7718888
241.826184
191.8673902
126.714024
42.31725497
-86.53006293
-165.7715531
-97.90167432
4.199024666
41.87430535
32.8427329
-49.08299465
-156.3091171
-210.954516
-216.4001883
-163.0012071
-87.73383894
-50.7741679
-42.67993058
-37.88808002
-1.254516992
73.64326102
137.9453899
191.958442
318.1903535
516.7740873
648.8225732
495.9980463
200.6650207
24.70012213
-60.71513041
-71.3872058
-54.5261951
-60.45928808
-64.45626562
-59.119108
-84.54484356
-140.4336999
-195.3958744
-248.843675
-305.1557339
-287.3511367
-161.437719
-60.11454701
-24.02576923
-2.509389129
-21.27111456
-51.55791985
-71.65779738
-87.62068206
-52.18319024
-2.353104588
18.64808944
54.73990094
76.54935812
16.79714803
-80.67095853
-133.7113975
-125.1770185
-78.46064637
-35.650642
-17.41953129
26.45834945
109.2056551
164.7390069
192.708698
255.6460685
339.2653728
323.4768527
166.1209899
33.41561443
-0.538906812
-15.81886301
3.591693022
39.9332443
38.93786997
23.03777896
25.81504701
77.05016729
112.7278216
114.7838959
129.1383386
44.66200959
-85.76423568
-62.43073949
0.077690768
-44.81477858
-104.5705884
-110.7372356
-86.3005333
-56.71340218
-75.39513681
-155.5726734
-181.4548427
-107.0650281
-50.73765293
-47.08921715
-23.65338286
61.90944097
160.1058707
137.1602812
1.253263536
-98.07075806
-77.5425154
64.19879565
164.999292
75.80667563
-71.777991
-131.1419212
-134.2972335
-141.5006759
-127.3008993
-62.80955975
-23.37804123
-49.24880031
-87.60102887
-114.9107457
-139.2302274
-165.2427386
-184.3438613
-174.1327937
-148.0022547
-135.5506354
-106.4276689
-20.38011459
71.3102997
91.66705902
62.21119998
44.68912935
57.55446642
104.4935971
165.4149532
200.2709111
204.4724629
194.8596499
177.2232979
160.1803442
150.4232825
135.2329573
111.4643517
87.70799179
53.28715854
9.713220059
-19.84993759
-21.71637871
-5.463792179
7.098871545
20.86749537
50.01186009
83.748502
110.202382
127.5458338
145.9748773
178.6083322
205.7977641
195.8595307
145.4250797
70.95230259
42.57754262
102.0053524
136.1334695
76.65123613
-0.023592763
-58.6035077
-91.54760063
-78.9560835
-69.64919833
-88.6901131
-102.1671393
-106.740347
-151.5760137
-269.1870879
-411.9986602
-469.0901186
-400.5557641
-283.2839985
-153.2523072
9.614840922
132.692662
134.9449893
45.99882923
-86.0784514
-254.068993
-360.5089679
-334.3379437
-269.554647
-215.6434193
-141.8314942
-69.91062834
1.515535847
106.1006914
208.028833
267.7274736
318.4403607
397.3252515
485.8062104
511.398206
438.0896179
325.2778151
224.662719
157.1947707
130.2843926
110.9096045
71.31091363
-3.340946481
-95.71226969
-156.9167304
-173.6166861
-165.3747974
-144.0679777
-120.3213492
-98.46734453
-116.8882925
-215.721136
-300.334423
-238.5231111
-108.8155442
-99.99164477
-180.6997219
-208.4942042
-162.3479345
-90.18751467
-37.90454943
-33.92351785
-39.49627486
-3.879448309
66.99661007
136.2231434
155.8235968
118.6485064
54.17253872
-12.06484476
-26.02433981
31.14862102
98.5995129
130.2292846
117.407982
61.65086182
-1.575138148
-27.94611596
-23.2785289
-13.30916619
1.278530848
26.23560491
62.89045924
113.6773304
176.9751968
238.1224324
260.1086246
209.354393
112.1958433
34.99995819
-6.729728147
-41.71211594
-76.82145577
-98.18828854
-92.23381919
-64.41012777
-40.27733463
-34.01815294
-38.60823368
-41.57851938
-36.70552924
-27.42326305
-18.18889221
-11.87368501
-12.77652122
-18.9453215
-23.32367619
-23.53563272
-22.73682869
-24.18646504
-23.6614776
-16.25524783
-6.321044033
1.161386072
5.432835005
6.415172362
6.086582252
6.297039697
5.945693643
4.318325377
2.583848283
0.972259336
-1.560221251
-4.517767895
-8.067067111
-14.439557
-22.41245842
-25.51146564
-19.5311108
-9.007377633
0.117400738
6.582235967
9.203731941
8.573693802
7.471850805
5.914113088
4.195140088
3.98602654
3.495184214
-0.457073162
-6.84069578
-12.06938775
-15.59233066
-18.96101584
-19.9890531
-16.2379159
-9.809256209
-2.762168849
4.303955413
9.073239975
9.420974396
7.855606302
5.84399847
1.780861205
-0.72690086
-1.865039436
-7.307082394
-13.81314622
-19.19315287
-28.49275946
-40.86254168
-50.67920125
-54.6564184
-54.04960227
-51.25278682
-45.752199
-36.87469068
-27.01455451
-20.42829702
-14.13089313
-0.602982194
19.11570479
38.43733676
56.63412544
73.9755566
81.2081674
67.61536172
28.1597636
-33.17009527
-91.0325705
-120.6098188
-133.4658103
-149.2632546
-159.8845909
-142.1391789
-83.94533128
-8.879150817
51.02831835
107.0261593
183.7391523
251.855905
257.0404331
219.8108104
202.9783042
210.3374229
219.2722487
214.8817559
177.4629646
113.1307805
51.84564437
1.000422453
-49.82744414
-90.04872039
-110.4011811
-125.7273682
-137.4910174
-134.0904695
-122.8906643
-114.7012436
-107.260829
-101.1507966
-98.78179048
-97.31068656
-95.45363086
-86.68466327
-62.51616975
-30.3582057
-4.474536262
8.796579888
11.10162515
9.189474721
8.668312021
10.21458118
11.89494814
11.31099233
7.209936565
0.137987623
-8.038673235
-14.99370914
-21.86099001
-29.18712064
-28.32964857
-12.17972919
11.08834741
28.90020113
35.78477171
32.55457603
25.20862588
19.09953467
14.91494817
12.19155479
9.671719284
4.66881527
-2.537118299
-9.015073331
-15.56374233
-25.38254724
-35.46816069
-35.02148658
-17.84272334
7.132763698
25.083555
30.10161122
26.21795703
20.19588515
14.85904412
9.867421361
6.861606182
5.444003905
1.151169652
-6.629297433
-14.34977661
-21.5766252
-31.80739156
-39.52175813
-28.93029767
-1.457348942
22.60561709
32.58604569
31.77059186
27.10053607
23.27619613
19.20674476
13.72704152
9.131013449
4.405777716
-2.542467513
-9.415679485
-16.26131631
-26.73327983
-38.64571735
-38.72652681
-18.02537157
11.18384707
31.34433548
37.42449707
33.77038482
27.43364694
22.05899259
17.69243137
15.05892909
13.0585512
7.406885039
-1.736397555
-10.12559202
-18.70870612
-31.1885063
-40.25731838
-30.4994882
-4.086580368
20.43226392
33.12852109
34.25869509
28.9924875
23.88474376
19.90845325
16.16997189
13.85747174
11.79767383
6.753402915
-1.189625356
-10.17277122
-21.2692639
-35.51565155
-43.29694818
-30.59499912
-3.239186244
18.51168555
26.62078642
25.38488688
19.83562458
13.82796851
9.463523721
7.11976238
5.626886933
2.437312266
-3.098459228
-9.535345556
-17.28779293
-28.05797752
-34.33725598
-22.61683671
2.572891013
22.59909189
29.66589315
27.48187021
22.39441757
18.32735508
14.66304766
10.69352772
7.245735102
3.194340027
-2.754396512
-8.93490374
-15.45320278
-25.59518186
-36.21561594
-33.72672469
-12.6800781
11.89458498
24.98785226
26.13321609
20.56962876
13.7442167
8.982748623
5.503913671
3.091031274
0.958461856
-3.497067126
-9.050074587
-13.91162816
-21.19260127
-32.25912335
-37.29879399
-23.18121302
4.372807511
25.83309079
33.07439869
29.96927571
22.51643696
16.76550466
14.44452124
12.552081
10.8479852
9.877709224
6.497837194
1.63075067
-3.634880946
-11.71046913
-17.07384102
-16.94665312
-20.21878738
-30.98396032
-41.62400304
-37.15670888
-13.04565667
13.42126965
26.56579115
27.40902022
22.35116923
14.85820596
8.490265397
6.367913732
5.935099679
3.711736236
-0.435169698
-6.512991819
-14.64556462
-26.0325906
-36.85926358
-31.51909826
-6.471333115
18.22899656
28.96812496
27.81765183
19.74327432
10.95769762
5.768203868
4.09394634
3.437219115
1.461790332
-2.182062734
-8.030187648
-17.04949247
-28.5116426
-34.33338586
-22.62995461
1.940745727
21.50723211
28.15400008
25.18698668
18.08680716
11.11910721
6.054211209
3.977277377
3.707326522
1.661250609
-3.329523356
-10.69462338
-20.8704242
-30.86518658
-29.77095145
-12.07374156
10.18631699
22.94679854
23.89143752
17.37732908
8.597202426
2.630112402
1.126240543
0.367777976
-1.485420136
-3.040443217
-6.267535827
-14.26232688
-24.70444341
-27.88795754
-15.7933676
4.811233065
19.50220023
23.21652485
19.04796172
11.47353304
5.260692439
2.362272062
1.880094374
1.23699038
-1.894163625
-7.06085208
-13.92196645
-22.42747874
-27.62442697
-21.06283524
-3.165185929
14.39297698
22.72259852
21.37438173
15.16496222
9.782555951
6.637073664
4.711252828
3.029601187
-0.243863507
-5.875452044
-11.23229076
-15.18013406
-20.76203905
-26.22568204
-22.26304245
-6.122381764
11.69243603
20.69890212
19.787413
13.20580519
6.566831473
3.713259984
4.345217565
5.000092535
3.855360063
0.872404248
-4.86247216
-10.74371749
-14.7132143
-21.6119983
-31.73910079
-33.86926365
-20.81940225
-1.299065792
13.0388311
18.63862784
16.87770559
12.54028954
9.93823983
9.407474404
8.985157649
6.941689888
3.910185193
0.229883988
-4.98830562
-11.16737516
-16.50197094
-19.57011052
-22.47779683
-28.83770319
-32.74831361
-23.49843833
-3.62026234
14.04321824
22.01606957
21.18555834
16.567849
13.11321642
11.63716014
10.81113744
10.56195498
9.476833006
6.185373317
1.665369757
-3.222433825
-8.036856616
-12.77650061
-17.31464345
-21.92288618
-29.24193337
-36.91487319
-33.50373844
-14.84013382
6.280004734
18.51150809
22.57556667
20.38022182
14.70247722
11.48374035
11.37862677
12.46595567
14.0513549
12.4513417
6.764952778
0.765871233
-4.640476386
-10.85397703
-16.39158049
-19.26499118
-23.09162921
-31.85284565
-39.16620313
-33.51743805
-14.12243237
7.39508092
20.55782723
23.72322917
21.53139172
19.07828422
17.84785616
17.49651693
18.17463803
18.25455392
15.08844668
9.137821751
2.582465041
-4.682398462
-12.70578463
-19.34185973
-24.40793871
-31.92627006
-43.46572608
-48.4660163
-34.40838469
-7.982703057
14.01732703
24.96264826
26.3631881
23.04163327
20.29955601
18.80435806
18.64652976
20.08868128
19.46211836
15.11691294
9.430397013
3.764153898
-2.656254612
-10.66980562
-18.32999808
-24.76265561
-33.69192789
-43.95449489
-42.98916409
-22.69180783
5.55541172
25.59915797
33.13829637
31.65210901
25.78324673
20.54076372
18.98159868
20.08635011
20.54281824
17.21465793
10.7872705
4.240592766
-2.641676929
-11.23913929
-19.63604093
-26.67750415
-36.35731234
-49.15505139
-52.93410745
-35.23500704
-3.382841607
23.36302881
35.8641238
36.53064861
30.85509417
24.23800356
20.2094518
19.1075027
19.32085107
18.40226907
14.38219035
7.719373387
-0.85080012
-11.25732985
-21.09420004
-29.26459786
-39.46422836
-52.03437398
-54.2611463
-33.74750572
-0.903237375
23.48184884
32.94994414
31.31724264
24.31858864
19.23460401
18.77894927
19.9639728
19.36068911
15.78208592
10.36594791
3.445329401
-5.525241732
-15.11129088
-23.66153667
-33.1276186
-46.06118518
-54.62637383
-42.16783149
-9.732601668
20.09976992
34.47195802
36.83222072
32.05073629
25.53722552
21.91507891
20.67956511
19.83998733
18.05981191
13.39672329
5.043961658
-5.660195669
-16.2382354
-25.44322618
-35.43080892
-48.96890894
-59.45179047
-49.54797571
-16.53087629
17.60430523
36.37597213
41.26986292
37.82078747
31.42502899
26.9857807
26.07350562
25.89315103
23.08588178
17.72831777
10.62191975
1.180720721
-9.520586754
-18.96252703
-27.6142039
-40.1017378
-56.41123872
-60.41370664
-36.97284823
0.382708424
27.35148314
37.61573125
37.35385866
33.16967242
29.75123763
28.38320778
27.51236582
25.85251756
22.49127711
16.02805987
7.020350007
-2.750587105
-12.84721955
-22.40848641
-31.59325338
-44.03547429
-57.56733502
-56.56243248
-30.83219913
4.937018861
30.38240053
40.64630051
40.43432701
36.63980698
33.83440855
32.25564371
31.58623446
31.42051914
28.88336526
21.70956026
12.25683089
2.368337584
-8.772102902
-19.50406372
-28.06578573
-37.97221555
-53.35765234
-63.72181676
-48.99205231
-12.31916352
20.85588588
36.00885964
36.84642998
32.43890043
28.22594284
25.67050915
25.11775348
25.39563758
24.33769498
19.67305824
12.20270437
5.665105585
-1.70512144
-11.73134043
-18.95700107
-24.16876619
-35.36907169
-50.50562327
-52.67120177
-29.74045753
3.756125545
26.61560582
35.767831
35.52019189
31.30747047
28.08976709
25.7736691
24.66305306
25.00263704
23.50992084
18.75468745
11.89709007
2.70713424
-7.833105194
-17.12218178
-25.44793627
-36.12394415
-48.09281598
-48.02102312
-26.1809122
3.794657347
23.69946648
30.29992223
27.03786424
19.85606313
15.61776595
15.23305699
14.80112366
12.74743749
9.815926551
5.134069391
-2.096131121
-11.42132149
-21.21951385
-30.32881566
-41.31147288
-53.10628678
-52.5939699
-29.91177183
1.846909481
23.25111603
30.78377039
28.74201659
22.37255157
17.76737148
15.74397689
14.97873705
15.21690695
13.83043228
8.583193467
0.11627601
-9.530895006
-17.65214958
-25.27976546
-36.41130314
-48.47644764
-48.95004298
-29.49588738
-0.841847256
20.42186983
29.31315244
28.75030743
24.17625976
19.96101178
17.32977685
16.14632387
14.82697918
12.39023895
7.607155598
-1.57997127
-12.49351443
-20.93061638
-28.20239799
-38.91534077
-50.31748575
-47.33824408
-23.18947277
6.552466848
25.47857225
31.2252513
28.48817401
23.94549118
21.43393412
19.8435864
17.88679803
15.56883014
12.96436051
8.763174671
1.503918802
-6.76310775
-15.08871613
-25.58547886
-39.44306779
-51.81778185
-47.12189654
-20.01153569
9.990498631
26.39940426
30.22394734
26.68775278
21.09351244
17.41547368
15.58582047
14.56258009
13.80693901
12.15754759
7.222227524
-1.816644143
-11.39433275
-18.56994714
-25.94463069
-36.95666237
-48.38485152
-45.748789
-20.87151912
9.522380327
27.4494195
31.86996623
27.94804209
22.04961612
18.11824843
16.27911597
15.41359083
14.19587547
12.14824305
7.119438827
-2.588404521
-13.00819792
-20.82681908
-29.47118618
-42.05299851
-51.45010343
-42.53102029
-12.97421835
17.04719357
31.71971826
34.7172415
31.66200521
25.32367899
20.43261328
17.56521758
14.79199276
13.03170616
10.70017169
3.753824072
-6.563686647
-15.64237198
-22.4932622
-30.5736642
-42.70665239
-49.96964044
-36.41537571
-5.964829239
20.43439582
32.88162052
33.00958254
25.51653517
18.90733459
15.68575573
12.32124969
10.08933653
10.21785886
8.872756187
1.588499265
-9.846350389
-19.11949093
-26.61845772
-38.14461452
-49.13938951
-42.23536747
-14.56975238
13.56582057
28.48850535
31.43019359
26.56551098
20.69803361
18.02665085
15.80645053
13.55914682
12.28369765
8.334879303
0.549042352
-6.819364477
-13.01899081
-23.50115584
-39.91907848
-49.89016128
-37.70708409
-8.191837775
18.51755388
31.84078254
32.76468499
26.33710837
19.04024429
12.71828679
6.92998618
4.722204137
5.310144918
1.761762881
-8.207336625
-18.96967356
-27.65791078
-39.66343819
-55.18746472
-57.77440666
-34.44097884
-0.181995523
22.81439993
31.7261996
31.07008405
24.99629278
19.67151894
16.17313135
12.72795268
11.01589532
9.56927576
2.521882041
-8.105245915
-15.88685074
-24.12168945
-38.03849205
-52.47681869
-50.89080803
-24.73543952
8.016376099
27.92553354
34.41935047
31.97237175
26.11692196
23.23547296
22.29076993
19.5660964
17.284186
15.56788288
8.113575371
-4.617525031
-14.95805637
-23.04075764
-34.97381793
-49.63704312
-52.18930828
-30.31199861
3.051778167
26.63742143
35.75584239
34.24210621
27.48154552
23.06782687
21.82656139
19.85721538
18.29584383
17.33868556
11.77329444
0.628611833
-9.878317018
-17.92341773
-28.65868478
-43.79698856
-52.65555448
-38.7714654
-6.700031062
20.87708485
34.23317318
35.8559338
29.75418267
23.95822784
22.13075515
19.94635873
16.34689866
13.19458706
7.760814758
-2.061406725
-11.9162961
-19.4965041
-29.36053702
-42.98463033
-51.11061326
-38.95883666
-8.671086812
18.57722072
31.76135552
32.96135955
26.36456679
20.63358656
19.29021408
17.41429261
14.86876102
13.69767624
8.572320878
-2.344287723
-11.97107623
-19.53237396
-31.86003775
-47.68008099
-50.55757774
-28.32496388
3.86692784
26.08434408
35.36858163
33.54239998
26.46135029
22.30939577
20.23011117
16.88497664
14.08110098
11.48381539
4.822042145
-6.44497043
-17.13840642
-24.95987623
-35.59068678
-48.55170811
-46.7447341
-20.8557362
10.32224736
28.63392181
34.93067569
32.01488541
25.5822541
23.43562475
22.1640042
18.14917202
15.32664027
13.05533073
5.577724615
-6.255529519
-15.73548552
-22.7650517
-33.92595472
-48.99508749
-51.55393599
-28.30645274
4.992553805
25.96151648
33.2182063
33.05758259
28.64582068
24.38593331
21.59061087
17.26850619
12.36500918
8.532488294
2.433947918
-6.898195797
-16.06222281
-23.37525523
-31.19491173
-42.79241455
-49.48352925
-34.49307571
-3.547575445
20.49318344
31.07841231
32.64890291
27.48048918
21.84359655
20.18325779
19.05730616
16.37779658
13.72608316
8.630483425
-1.376559812
-11.98115869
-20.38250355
-29.40020362
-40.90941018
-50.09851744
-42.69521104
-15.09819659
13.40981872
28.54089358
31.40267856
26.26057633
19.62541112
15.88677728
13.05569768
10.01359734
8.633662013
6.411472135
-0.843090168
-10.69015793
-18.09103839
-24.88989127
-37.21455109
-49.51195776
-43.24487604
-15.4691579
12.87759169
27.81100916
30.85057621
26.00918327
19.73130784
16.44099709
14.15056994
11.47883573
10.06856287
7.380669596
-1.32518381
-11.93975434
-19.08220521
-27.2288489
-40.14429725
-50.02559222
-41.37579673
-12.81987206
15.18722769
29.29506722
31.61046922
26.63041796
21.3286664
18.61240322
15.04397752
11.53503606
10.05702132
6.045475506
-3.404506022
-13.91203408
-22.51811136
-32.41218705
-46.06498831
-53.97719905
-39.91156101
-8.183678579
18.27009206
29.57805023
30.29161312
25.12664214
19.15419504
16.03898605
14.18177519
12.66513586
11.28966151
5.516627729
-5.548359651
-16.20759462
-25.38928236
-38.27920897
-55.33640282
-61.55229732
-41.41810821
-7.085053957
18.54406178
29.99059162
30.40566989
24.87531945
20.93558328
19.85072531
18.05682391
18.55934313
23.62992686
22.92932971
12.38292625
0.549531681
-10.26576191
-22.54469944
-36.28845862
-41.21841881
-23.50526829
6.889476405
27.46978196
33.32677943
31.21236154
26.23068053
22.42409838
20.25359206
17.8057518
15.70857947
12.11170476
3.147311164
-8.695689783
-18.77624524
-28.38292923
-40.65273527
-48.3392769
-36.06023986
-6.640557159
18.30012152
27.99561274
26.71452057
20.18589535
11.30449523
2.779520463
-3.508665515
-8.040182771
-11.72558062
-18.02395555
-28.32328086
-39.2532268
-51.32700642
-66.76732553
-76.57378464
-63.34551539
-29.47260345
2.61770594
22.81312671
32.05197722
35.56675854
43.82483578
53.36921476
56.25888609
55.69692163
55.81367981
63.99106011
79.17011733
81.80168146
70.80118369
70.12231803
89.11281654
108.7036948
101.1130622
61.47140448
16.1506454
-13.09051597
-37.85457592
-71.31705477
-101.7287757
-114.2283621
-101.0945845
-68.71259578
-40.12681466
-22.57910853
-3.155669469
19.42610859
39.40919634
49.86199755
48.42075595
33.96565437
-7.083236214
-54.30847373
-72.055131
-69.30378075
-61.21464759
-50.76820965
-45.12199955
-44.15730608
-41.87576537
-38.35622375
-36.68605983
-37.26529726
-41.58730861
-52.34647029
-62.92465077
-55.52073192
-25.6187857
8.511570859
31.67255705
41.32575643
39.45253894
33.02701746
28.86943229
25.86027523
22.86301835
20.93879632
15.36171153
4.265646381
-7.30677556
-17.84237276
-31.80285642
-49.87288041
-55.46836312
-32.86840798
3.70201441
31.02093146
42.55464277
43.04258641
40.85962197
36.71214252
26.45397577
15.03829212
8.914639188
4.556502027
-4.132221731
-15.50854885
-25.97332035
-38.99620489
-56.48613185
-63.08614762
-41.0547544
-1.215782161
31.57655443
47.30718644
47.43988846
39.21198285
32.01082301
28.15741454
25.99798619
25.34822722
21.58243068
10.35701283
-2.359160683
-12.49752096
-24.98681474
-42.06278675
-54.94433512
-45.78957182
-11.96491242
23.36542172
42.8955115
47.03537808
40.81046661
32.64644008
27.55601724
22.84253673
18.41154572
15.03641468
7.832579287
-3.99897358
-14.17587352
-23.0129442
-36.87511889
-52.78698787
-52.93848073
-26.22152433
11.54877234
38.07295813
46.92112242
42.88003551
35.59448712
31.27173735
27.15719554
22.36258304
21.09721575
19.49397695
10.07158737
-3.099794507
-14.80288024
-29.01401658
-47.57914623
-61.02099315
-51.75855611
-18.77578052
14.3430577
32.04301734
36.47789671
33.82337947
30.67359099
28.25049302
24.79008732
21.95866372
18.42114141
10.15355756
-0.989307849
-11.80008016
-24.65412099
-41.56810964
-52.23603858
-39.8461306
-8.059189304
20.50511502
33.84423024
34.37405637
27.2432744
18.08132146
11.92404239
10.11818749
9.88780761
7.586310413
1.376371345
-7.314210463
-16.04249969
-28.45416654
-45.92655636
-52.06569721
-31.15612825
3.571580269
28.54679638
37.5059138
35.14836952
27.74313322
20.2762789
14.9077696
11.96906716
9.464675036
4.749432105
-3.401690369
-13.03350769
-22.82041671
-37.3956711
-52.67307582
-47.80387974
-17.83172439
14.52625672
32.5095071
36.28017572
31.91073659
25.37920362
18.3258334
13.07842431
11.19965193
7.860544958
-0.145222214
-10.52703343
-20.10392625
-30.00318161
-45.26475065
-55.36172431
-39.1196487
-3.309091352
25.48720566
37.28500598
36.27342916
28.6745961
21.51699871
16.96844518
12.82049982
10.08083979
7.033258796
-0.582584399
-9.647608599
-18.26823638
-30.89258333
-46.85707555
-50.24601094
-26.81108958
7.908178259
30.50363489
37.73637743
34.00463453
25.43998294
18.84603713
14.64150691
11.65508291
9.230016539
3.89244831
-5.430260383
-15.23327069
-25.05098149
-39.81219869
-55.15038235
-49.93540991
-17.91156258
16.74707947
34.61838531
37.32948407
31.33742987
22.60344068
16.02560354
11.64810461
8.675841761
6.035493043
-0.394006203
-10.58972693
-20.57740387
-31.85951263
-47.00583392
-52.66281559
-31.22787826
5.014249195
29.31949184
36.34044556
33.36369575
25.18462766
16.13566008
9.853940506
7.009091625
4.443733644
-1.235014795
-8.512174669
-16.47738831
-28.35833363
-44.59283688
-53.33577698
-37.20436831
-2.240066762
26.23283052
37.73397475
36.85859808
29.20743241
20.57641557
14.5751187
11.42200822
8.741695157
3.127440626
-4.839011723
-13.74511547
-26.26303092
-43.25001371
-52.23303574
-35.79129777
-1.254087782
26.07992813
36.88260783
36.43597256
29.27473642
20.08798117
13.66403819
10.27639988
6.207228211
-0.188660865
-7.839404089
-17.21508174
-29.94059239
-45.68088875
-51.02202082
-30.06595183
4.665483373
28.20456243
35.19838254
32.12564075
24.27985983
16.6785163
12.55092058
10.22842194
5.975406062
-1.435023109
-10.22475399
-19.44389578
-31.91597464
-47.15666176
-50.09787422
-27.82990034
5.676800752
28.34325107
35.12074828
31.66468486
23.50915255
15.11376161
10.69233714
9.718605855
7.474158221
1.734895759
-6.655898796
-15.86132074
-27.30427219
-42.9681813
-49.77951946
-30.45191623
4.142987196
29.35785899
38.55205363
36.47885778
29.42474146
22.54125879
17.3017789
15.23344038
14.02630304
8.187506381
-1.898791141
-12.68037904
-23.29151424
-36.63901866
-48.96060928
-42.27519608
-13.03205288
16.43829449
30.85155485
32.57177865
27.78910539
21.78942322
17.5689922
14.77643287
11.5803056
6.627532767
-1.20493821
-10.62152583
-18.97845616
-29.10765992
-43.29100039
-48.37829421
-28.81765262
3.957275327
26.55783178
34.27979335
31.75306026
23.46506968
16.43187857
13.7465476
13.14147289
10.82988385
4.595310289
-4.425456513
-14.03762504
-24.93000676
-39.71084042
-49.2612986
-35.57421012
-3.467323809
22.8212919
33.02365673
31.44139657
24.30876808
17.20816407
12.65112003
10.42876073
8.529616397
3.556556973
-4.761315501
-12.99382476
-21.50908418
-34.50323704
-48.42813698
-46.08265101
-18.89908007
13.69723403
32.40609935
37.01341779
32.70932579
26.32227336
20.95794346
15.58763684
12.16649743
9.421677749
3.433384248
-5.487161662
-15.33132913
-25.77288787
-39.00700922
-51.72222832
-47.96002191
-21.17112377
10.61285252
30.04836306
35.74958367
32.36331315
25.81730958
20.15313077
15.33413211
12.29364837
11.01929452
5.891770978
-3.759443259
-11.8414099
-18.62367113
-29.41178921
-43.52442512
-46.55308959
-25.47743571
5.992696217
27.82464992
37.05767211
35.65777818
28.8272581
23.27141313
17.8314274
12.16538961
9.431225998
6.493301604
-1.575423275
-11.55632587
-18.21710086
-24.86540039
-38.02662037
-50.27273557
-42.77819783
-14.13917045
15.47933843
30.97494345
31.77650252
25.56376603
19.92384964
15.22635156
10.17779085
7.046963804
4.914162416
-0.919408676
-9.515411592
-16.60777391
-23.96611627
-36.52888718
-48.30628012
-41.14040686
-12.50666457
16.54211945
31.37783544
32.87728213
26.41211501
18.20750557
11.64740404
7.097916888
4.717620428
2.515523289
-3.337200444
-11.52978425
-17.91350581
-25.83583771
-39.95113087
-48.88944983
-34.69244136
-3.017931746
23.35163648
34.00395737
32.02511731
24.13776711
16.88866392
12.08144827
8.890300257
6.913931981
3.218274678
-4.68508055
-13.8424839
-22.02472946
-32.75939238
-46.98735229
-50.42985834
-29.38468412
2.569349156
24.4839259
32.36598456
29.25270048
21.754251
16.39632373
12.50336085
9.948527148
8.813516693
4.774875315
-3.226965552
-12.09457509
-21.09097935
-34.22718734
-50.46275622
-51.99214029
-27.34416977
5.686760101
26.73515736
33.96549612
31.80308657
26.12485154
22.01320437
18.81968932
15.9058135
13.29135727
7.725051953
-2.333767327
-12.92855824
-21.19309731
-32.27161253
-47.47982569
-49.86567408
-26.89418112
5.807855592
28.38512328
37.50961294
35.76326717
29.33269204
25.74120121
23.2773843
18.95921443
15.89458114
12.83033912
4.291429487
-7.195951372
-15.51879856
-24.09899426
-38.81994863
-52.54262297
-46.20567609
-16.91489423
13.02805034
29.90872244
34.40154681
29.05837323
22.85635895
20.29590392
17.80852084
15.89738008
14.05358271
7.148263067
-3.505183855
-12.34670937
-20.41791364
-32.83926636
-47.21487015
-47.2893988
-23.91314559
6.879101285
27.58395152
34.86186054
31.50486165
25.09565845
20.7690918
16.11254772
12.04426765
10.22903878
5.601561221
-2.859386572
-11.40563763
-20.27586629
-33.22834829
-48.30258683
-47.64800912
-21.47714019
10.4298307
29.35077431
34.95933561
31.35910051
25.30394081
20.28962599
14.57627348
11.31768853
11.07550493
6.288092191
-4.423416986
-13.99417064
-21.32960561
-33.21821205
-47.37445944
-46.15691553
-21.50410157
9.196291191
28.41289816
34.25409755
30.65132066
24.91367092
21.37478489
17.22356209
13.86141879
12.9774715
8.181941156
-2.214952544
-12.08671821
-20.66801835
-32.5179314
-46.98394675
-49.60816456
-28.04339808
3.607055678
25.09439876
34.01864041
33.6026054
28.36932028
24.32540226
20.9469006
17.23253195
15.15374061
11.28232829
1.87452522
-8.513514412
-15.69972857
-23.86262398
-37.50321709
-47.61513881
-37.00279993
-8.093393102
18.23424532
31.99697305
35.18590977
30.98678759
25.33821125
20.90092707
16.13771657
13.11769154
12.31276985
8.48985733
0.153844398
-7.512665207
-13.35419692
-23.51003213
-39.32453609
-47.59495839
-34.07015523
-6.794974678
14.56086783
23.37948254
22.93271295
18.77901687
15.95447406
13.24905727
9.466953892
7.391431396
4.731344566
-2.705382534
-12.41188631
-20.92064212
-30.64830748
-44.90349445
-53.20632019
-38.73798666
-8.309814222
15.79364429
25.69296633
25.60461041
20.72694429
15.91744175
12.39826312
9.680280632
8.639885569
6.125508017
-1.454449536
-11.07593351
-19.65357385
-30.24550582
-44.31794312
-47.69391849
-26.45854717
5.140067453
25.80816813
33.1181867
31.37436687
25.40909725
20.1001708
15.51760932
12.20778962
9.982420921
4.068838455
-5.941189284
-14.90086911
-22.9833051
-35.35761304
-48.79965318
-45.79366985
-18.83323874
12.33401693
29.36790942
32.91473348
29.52755704
24.50933344
19.52888008
14.3983945
11.11093229
9.569735759
4.44074612
-5.412945379
-14.68175936
-24.19875038
-39.578902
-53.61929101
-46.89404136
-16.61565564
14.70973431
31.1655032
35.25478156
31.66245557
25.08110195
19.47662661
14.52831326
11.54309771
9.656925162
2.492290568
-8.834414245
-18.06930143
-28.1766705
-43.32503582
-53.51354079
-41.29206628
-8.834806294
20.32733945
33.53634994
34.4872939
29.18886817
23.18509234
18.05288873
13.80313314
11.1667735
7.061084756
-1.344612256
-11.31569482
-19.8061822
-30.54660202
-47.19596038
-55.38518848
-37.24014366
-2.48830927
26.00131151
38.31953357
37.08107199
30.86659891
25.29801582
19.91763102
15.75400564
14.78981175
12.02539892
2.952177119
-7.81548324
-17.48496968
-30.29212554
-47.1322747
-53.00358478
-31.42211698
4.666177011
29.98293845
38.68877169
36.1634647
28.65143077
22.0422409
17.24164096
14.02819307
12.15374232
6.753194003
-3.387664747
-12.90773877
-22.21041565
-36.57404843
-50.63954064
-47.25164771
-20.02753567
12.9394415
31.85738911
35.87694674
31.8485202
24.44645301
18.1542632
14.83657672
13.24297188
11.01509326
4.654139769
-5.369025631
-15.4612764
-27.44562516
-42.58229674
-47.37836812
-27.87651466
4.523545536
27.69484476
35.49535919
33.30295616
26.88135877
20.67710861
15.67122802
12.31317396
11.02581535
6.860087916
-2.184688317
-11.50433911
-21.0941279
-35.2900699
-49.19469272
-45.50346012
-18.65926988
12.31098044
30.76257371
36.14034546
32.63166639
25.82291567
20.21822391
16.37948135
13.85470207
11.61623757
6.289597843
-3.24747712
-12.69346357
-20.74855156
-32.68485729
-47.90346134
-50.56582631
-29.03336719
3.047468491
26.20243891
36.52824637
36.33612895
29.50473973
23.88199059
21.05612563
17.32354664
14.19925082
10.63715326
1.999292791
-8.294889085
-16.20862536
-24.77898699
-37.46044969
-49.93087651
-46.61302163
-21.32565774
8.892822907
28.02879365
34.88126041
32.93064798
26.56067178
21.60616927
19.7517529
18.05421704
16.06725334
13.09901493
5.839134838
-4.90207084
-15.59627511
-25.16523218
-36.08133252
-48.64839149
-50.35639846
-29.3859683
1.867942226
23.43273167
31.73036562
30.97557639
25.57880905
22.14502149
21.97181713
20.4521043
17.42579901
14.83292596
9.631185544
-0.13601928
-10.76358687
-19.40729042
-28.81194602
-41.29202571
-50.79874289
-44.53874678
-19.60802341
7.931132826
23.87348911
29.02248748
27.22268687
22.14124237
18.07729279
15.58191235
13.6445333
12.2060728
9.204632268
1.905666035
-7.235433174
-14.0435439
-20.52514751
-31.28682088
-42.39860291
-39.59715997
-18.11805528
7.919547742
25.0503352
29.89816544
25.5219036
18.90198605
14.27687202
11.63778123
10.17247918
9.188041909
6.769364383
0.318143209
-8.403052436
-15.6749451
-22.80161208
-33.29387259
-43.81710231
-41.99434381
-22.12381653
4.512713534
23.25234795
28.6082722
24.48381002
18.49864134
14.61375219
11.39386656
8.643352034
7.336674802
3.976172945
-2.929370483
-9.708210045
-15.38132851
-24.13641419
-36.15951162
-38.95335956
-22.27989386
4.307054878
24.07393396
30.47880123
27.15135079
20.34833016
13.66287315
9.081688729
7.168431937
6.17155394
3.549568985
-3.207832177
-12.21988079
-19.69517702
-29.1613709
-41.48830806
-43.36809737
-24.84801443
3.406026563
23.71446117
30.2706972
26.86009435
19.62068233
13.64104392
9.517586657
7.476391657
7.098476264
4.022753043
-3.187327903
-11.38350812
-19.17109609
-28.97205025
-40.85136598
-44.03286077
-27.38233858
0.489701328
21.91870871
30.80243361
29.32021769
22.23378051
15.35038754
10.4805778
7.001257946
5.528586833
3.930785018
-1.432420383
-8.878337077
-15.97101402
-25.85958734
-39.22743354
-44.7128992
-30.09691145
-1.693375769
22.77591278
33.88250111
32.49914877
25.48479354
19.29486512
14.44272219
10.91368803
9.362783058
6.755294669
-0.254944875
-9.555864195
-17.17606789
-25.60371113
-38.41999456
-45.98909377
-33.14833746
-3.978372228
21.33095082
32.06569614
31.34630896
24.5568257
16.64664667
11.36919135
8.826836442
7.99875396
6.111857657
-0.683292926
-9.854773587
-17.26706477
-26.76586388
-39.94783503
-44.93573191
-29.32243926
0.140632395
23.90598666
33.0025092
31.19361039
24.09182324
16.13483264
10.01884897
7.150717079
6.089574835
2.161139547
-5.779670618
-14.06633827
-22.74515792
-35.90898784
-48.93807061
-44.90173734
-18.34668804
11.80542803
28.26903138
30.71805132
25.65821602
19.1533792
13.52055262
9.851179599
8.765549915
5.94416786
-2.039549206
-12.04820678
-21.43582854
-33.08585635
-48.19446043
-54.12038518
-36.86537692
-5.385405117
20.10497336
30.85389675
30.21963717
25.236745
19.31643988
14.53459324
13.2472568
13.24198861
8.925432924
-0.629346701
-10.97689553
-22.08129555
-38.33823982
-53.69077074
-49.43564116
-20.85187293
11.86801039
31.45628769
37.09850617
34.59584521
30.23772604
26.76167311
22.60229947
18.36486679
14.97611413
7.621574085
-3.650584195
-12.6765522
-22.15353093
-38.36202412
-53.23714705
-46.9555485
-16.38511634
16.23696631
34.11169108
38.77341735
35.88649907
31.54637103
28.47625609
24.56728238
20.81975082
18.51058287
13.48751287
2.884062434
-8.614285454
-17.06039241
-26.63046415
-41.57684725
-52.42190769
-39.89214678
-6.919571055
21.62056687
35.57823838
38.80179478
34.38472474
28.94815835
26.99374927
26.08948388
24.8677595
22.52347301
16.391897
6.938447929
-3.590724263
-13.37097277
-22.05367925
-33.27426018
-47.68398145
-53.48080931
-36.69813327
-4.776800079
21.01846081
33.07578407
34.7415847
30.04602936
25.47058588
24.50315153
23.75817928
20.52644598
16.17075248
10.43814272
1.325807005
-9.033034305
-16.7748651
-23.33233751
-33.46379616
-45.4589348
-46.12630351
-25.66222546
3.73263253
23.81381431
31.4852992
30.61857395
26.00551638
23.45838318
23.13569205
21.42145594
17.78510293
13.3009241
6.674377609
-2.616727609
-11.67847617
-19.64943101
-29.33612585
-41.49223349
-48.91047272
-39.33943526
-13.16980981
12.76817071
27.14960391
31.1853388
28.65052911
23.86783791
20.65468395
19.78104482
19.28191315
17.24481678
13.09345494
6.424213707
-2.33726516
-11.68433211
-19.50823979
-27.3541913
-38.72322975
-49.01004004
-45.11207281
-21.16941257
7.659849454
24.07995334
29.03668467
27.8966282
23.36425381
19.93748904
18.4817208
17.21544681
15.54697585
11.51058139
4.420111428
-3.65476153
-11.60225425
-19.11190621
-26.80342795
-37.51278948
-49.04992702
-47.94527268
-26.03598828
3.179182234
22.4137313
29.33022526
29.08622252
25.80080586
21.8804337
18.77091319
16.64218264
14.38658697
11.62783116
6.877083868
-1.425313254
-10.60083716
-17.36043172
-23.64429565
-33.7293823
-45.48959893
-45.57961811
-25.19377539
2.189764866
19.95113677
27.21744997
27.57395277
23.61609535
19.81052136
18.19813414
16.81869477
15.01819916
13.04186636
8.089117898
-0.709770377
-9.731781603
-17.33764602
-25.22516563
-35.01296229
-45.64380249
-46.28052
-26.77665738
1.114529705
20.09847148
27.81164847
26.99609729
21.94338253
18.3106424
16.19452354
13.8154967
12.31706794
10.36581227
4.527623706
-4.580118105
-13.86080571
-21.80089597
-31.26156635
-43.25387157
-45.45410551
-27.26533936
0.387900358
21.0219722
29.98540473
28.63766078
21.85009707
16.66164634
13.9541274
11.15287961
8.812652003
6.533945556
0.668611979
-8.269948993
-15.54072391
-22.4893156
-34.10151002
-45.81032359
-43.50946102
-22.0978742
5.522049853
24.35388333
30.66830632
27.61523573
20.01007912
13.41397593
10.62652279
10.5293915
9.834713238
4.864548938
-4.376093866
-14.41160613
-24.08251167
-35.64309659
-47.42118289
-49.27575773
-35.0987322
-13.4662428
6.177051491
19.12079954
22.10717861
20.04538837
19.21698231
20.86240288
26.12261788
33.42337004
39.38735377
46.40461709
58.76903964
71.37209147
70.58273594
46.88031707
7.022484257
-27.97223548
-44.40881411
-44.20177339
-36.61228882
-34.17004509
-40.71828556
-47.22990206
-48.04362835
-44.83156879
-37.64963945
-28.62389596
-24.3782448
-25.48402618
-25.59629139
-25.51824525
-33.88450766
-49.00932625
-53.2769383
-35.18761956
-7.328295165
12.72492697
21.57889381
25.94470731
33.68781098
42.47405689
47.37883336
50.89687834
51.85087176
46.14420182
35.45842453
22.63109645
6.434433963
-14.0815395
-29.58237801
-25.33654539
-0.520034183
28.74112532
49.11792785
59.27502928
60.43236383
53.57812703
43.32850737
33.61705605
23.19927516
11.2698086
-1.603939706
-16.16210106
-32.46846078
-53.04433513
-72.21015314
-69.50575559
-40.39504292
-5.588082823
18.33070724
28.58844402
28.8807034
25.15007062
21.46343993
18.17215955
12.86192458
4.220018727
-5.847262879
-15.42765736
-26.87045838
-43.95452681
-60.41046234
-59.39680097
-35.97664948
-5.517470062
18.0092087
31.14884504
34.13406478
29.24315498
22.0807579
17.3654698
14.29511278
10.43526488
3.833222735
-7.286217184
-22.03715626
-38.66887087
-49.7045713
-41.27273078
-14.51130886
12.80266344
30.23637921
37.21614603
35.96489242
31.3211279
26.74942317
22.76385113
18.30635703
11.16327502
1.751056366
-8.46724472
-21.1055563
-35.97745071
-44.19376538
-35.32294844
-12.34277869
11.35485461
26.77578085
32.7242143
30.97009188
24.61225024
17.54412786
11.36909924
5.258503234
-1.72239327
-9.732734629
-19.5639575
-32.73206377
-45.7216945
-46.83385736
-29.33532968
-2.108000583
20.88029512
32.10599566
31.89085515
25.78109945
18.96819947
12.51438942
7.064632429
3.727044492
-0.268811615
-7.079532817
-15.29812868
-26.54658538
-40.55767024
-44.96566476
-30.6547505
-6.596773892
13.81081373
24.81486156
26.96505753
23.95215071
18.22472092
12.51092128
10.61368526
9.752617047
4.960028471
-2.300668006
-9.7802121
-18.56956853
-31.1186441
-42.55477663
-39.81223688
-20.75341293
2.593493799
19.53633593
26.44637143
26.60169422
24.10674198
19.42967322
14.33124834
11.94704787
10.89007778
6.002035998
-3.136733295
-13.30671126
-24.8901686
-38.27944291
-48.08168606
-44.33186403
-25.70995437
-2.850382935
14.94943456
23.14263059
23.05125624
21.00084235
18.76415311
15.33148207
12.03863759
8.178084299
1.80555065
-6.730678012
-15.48004747
-22.79596983
-31.20195867
-39.16550273
-36.24796794
-20.30156602
-0.744916049
14.06704501
20.40112041
19.81861001
16.85863983
13.54046847
10.22356906
7.82856254
4.61856862
-1.544787293
-9.167083187
-18.02795789
-30.02937208
-43.33491594
-49.87481552
-41.07706453
-19.86699415
2.644456507
19.10162222
25.93569495
24.16413286
20.12271564
18.36858891
17.92750423
15.84936961
9.934939253
0.67975214
-9.15846553
-20.27518975
-36.32204639
-53.54343805
-57.17651121
-40.07667421
-13.27698405
10.11824104
23.74494184
26.4732097
22.50523282
17.56780107
14.44168741
13.27333125
11.30663678
5.057160084
-2.870919002
-10.37821675
-21.26889216
-37.95733468
-52.42228951
-48.41940899
-23.70247537
6.109612055
27.24506417
35.2691965
33.18782786
26.83734287
20.30509292
16.04576306
12.56842082
5.592398734
-4.203535943
-13.43041658
-23.14403346
-37.93425706
-52.08930319
-47.52412533
-20.16846223
13.46148503
38.04626037
48.29190133
46.83157012
40.78030898
34.53949062
29.12844305
24.67838245
18.26311552
7.807844316
-4.709864366
-18.2203491
-34.08868301
-49.06950653
-48.25425396
-22.4981454
12.35078939
37.1245511
48.78685989
49.09607544
41.17772731
32.45970366
27.25367442
23.90306195
19.26079137
11.64251701
1.501428219
-10.53215846
-26.47557563
-43.57097567
-45.44299385
-21.58636137
13.32275909
39.6616661
51.85050187
51.43059887
42.88148107
33.94658764
28.08186452
22.73210007
15.63930665
6.412033203
-3.728324655
-14.95296905
-30.30174953
-45.70335553
-45.86988281
-23.43743277
7.750194294
31.0106795
41.17830036
39.40914254
31.83152049
25.13921348
19.99802962
14.7618466
8.58484862
0.506174759
-9.447187916
-21.42874125
-36.19480228
-46.05693938
-37.70519364
-13.32118583
12.5978025
30.08017952
34.08469475
26.31649463
16.52463404
12.40649064
12.81106069
13.19529379
11.67606784
7.737327591
-0.256841072
-13.19506424
-25.71600239
-27.58171925
-14.48530957
6.226005576
24.27018836
33.83265944
32.3581147
23.46933293
14.57492462
8.298157724
2.752486215
-3.751122201
-11.16682877
-19.2815244
-27.58376666
-34.54256326
-34.80562364
-22.45767551
-3.536817437
10.79309754
17.0646125
15.4556185
10.98435887
9.220009505
7.407445194
3.357940126
-0.401018716
-4.100078449
-9.343248146
-16.12324096
-24.1963975
-28.68250004
-23.17825289
-11.13497844
-0.289532407
6.958323192
9.826495336
8.714647903
6.34655991
2.856233102
-1.984733723
-5.139061953
-6.203732719
-7.625731761
-10.73142773
-17.61097089
-24.68600948
-22.64211651
-10.9617201
1.966244686
9.28230724
9.683363112
5.407804777
-0.143937129
-2.877833273
-2.118518243
-1.30775434
-3.26273744
-6.966393073
-10.16218397
-13.89098037
-20.0593154
-25.96507902
-23.92219168
-11.72232622
2.171737728
10.37539206
12.62158676
11.86759064
10.03886636
6.382099811
1.777092759
-1.170501857
-3.124090765
-5.788731169
-8.854520749
-12.33781573
-18.16117378
-27.46413037
-34.84771537
-32.10904844
-19.79141568
-5.417921299
5.651119984
10.72070103
9.201465506
6.980297162
8.429212696
9.570138277
8.275677775
5.100004255
-0.070674071
-6.459345239
-13.75371235
-20.70519566
-27.29065387
-36.09197528
-45.2425156
-45.74989803
-32.72346952
-14.46938803
-1.210558883
5.752321262
8.017938998
6.629473658
4.988209025
6.025796932
8.374627477
8.594928923
5.442513109
-0.097767902
-6.233754482
-12.3072467
-19.54615148
-27.37168047
-36.37528755
-47.76362432
-53.52276525
-43.98755973
-21.80259526
1.490495658
17.08498644
23.53325361
23.52926899
21.77157332
20.90724398
20.32422357
19.54210808
17.98188292
14.91789597
10.22050412
4.44644758
-2.576213262
-11.14311577
-21.79266606
-37.27052216
-53.64730399
-56.08518741
-37.35539478
-8.662475866
16.02682353
30.86916293
36.29635712
37.80166996
38.41479874
38.08562518
38.80825476
39.44893417
35.93602933
28.63657142
20.52718116
10.79667133
-1.484753094
-13.19779098
-23.96624554
-37.18029373
-51.85380843
-56.48104614
-40.22239996
-10.57646992
16.73424803
35.62316944
44.92124424
45.06820264
42.66132045
42.12858344
42.03030352
41.78285605
39.18365002
32.49093517
24.18419751
14.48069577
1.729347891
-10.96464351
-20.57399555
-32.32093066
-48.52482011
-55.00774412
-38.42904121
-7.001223498
21.47394672
38.71253332
44.87198451
42.67072927
37.72036664
34.54381967
33.57809989
33.32124932
30.97631854
24.62342841
15.42139459
5.409863454
-5.383906471
-16.51872921
-26.19762419
-37.51299127
-53.17237709
-61.92074655
-50.05311201
-21.08648717
9.949751392
31.19053956
39.69754364
39.03095573
33.95044812
29.13302401
27.12703804
25.04717972
20.91997371
18.19657063
17.49141476
14.48102686
8.182015027
1.455899919
-7.095297255
-20.60229468
-32.46714271
-29.50294798
-11.08270911
7.487824756
16.55926947
19.16778276
18.65545737
15.66172826
12.39989634
11.76733996
12.80477439
12.61346985
10.56024005
7.417585728
4.924702096
3.239273355
-0.868085273
-10.0955102
-23.05080332
-33.56804915
-32.36428312
-15.97604792
5.657824108
20.71349248
26.88355409
26.37481406
21.93500637
16.9101371
13.32542775
10.91633872
8.720147892
5.775349647
1.213742157
-3.349442504
-6.931328742
-11.59845499
-18.16416785
-25.37212075
-33.01970108
-41.57522766
-43.54843181
-30.12466727
-8.971910734
7.041545577
15.19326509
17.47850158
17.15715476
17.50670031
17.47020965
14.96758068
11.5394797
8.665104325
5.658189729
1.496943475
-4.315525518
-10.90902453
-17.75317555
-26.43448561
-38.01555573
-46.5403166
-41.44708676
-23.26852109
-4.186612802
8.030340575
13.56021894
15.13043456
14.9179341
13.76788001
12.59439412
12.22035486
11.39616467
8.565306156
4.138345599
-1.511368695
-8.35491197
-15.74433987
-23.37137319
-32.78185807
-43.31178134
-45.17841463
-31.5988233
-11.5019756
4.113440169
12.79882862
16.35920856
17.53876192
17.35111277
15.74372192
14.87234206
15.20244455
13.9597922
9.97939681
2.635207182
-6.538147175
-14.35462579
-21.83488187
-30.69389244
-41.62464694
-47.71547657
-37.25729207
-15.89720961
2.339010233
14.38300624
20.40626654
21.11661351
20.4600178
19.42824339
17.23699959
15.47198216
13.11248468
8.548118815
2.537739071
-5.82205888
-15.89898276
-25.10074399
-34.90172159
-47.21549477
-52.98710787
-39.94797471
-14.30980586
8.159171654
21.10747938
24.9980895
23.13608521
20.63999385
19.51905254
18.56853208
17.7626666
17.06027505
12.99392547
3.97738407
-6.067116652
-15.80433724
-27.79641811
-43.42601148
-57.02181957
-53.79494491
-30.10010611
-0.784530041
20.97435834
32.06040409
34.51264275
32.8595226
31.60000536
31.39399969
30.22725127
27.18172309
22.63982556
14.70834444
2.648955173
-8.882776478
-19.86529617
-33.34597277
-48.92459005
-60.60722297
-53.54365483
-26.06387428
3.809224741
24.53114659
35.59426063
38.49309443
36.78346633
35.08274523
35.39099603
36.01561631
34.05135754
29.1540656
21.83643222
10.82504997
-2.410114481
-14.08006489
-24.5057029
-38.7557878
-55.86708911
-60.95821129
-42.88869793
-11.59632936
16.32754458
33.7847889
40.22779225
39.82928045
38.59874173
37.42521432
36.65381701
36.16286241
32.33086601
25.84057941
18.17028963
7.320909852
-4.87569314
-16.50633677
-28.83214918
-43.54581037
-57.65810793
-56.69577852
-32.80631471
-1.138515896
21.65596911
32.90097562
35.39635862
34.07685858
33.40901298
32.64559181
31.84940281
31.31240859
27.47237608
20.08500105
11.19519833
0.924681596
-9.936094033
-20.8184475
-33.050614
-47.34279719
-55.45281397
-44.22498671
-17.05511451
9.489989313
26.99148833
34.30215477
33.01706475
29.7461913
28.86609905
28.21332755
25.92426141
22.82925331
18.23324552
10.61352496
0.457936952
-9.408857012
-17.92114982
-28.41912368
-42.22855076
-51.25941731
-43.27449164
-18.7996405
7.266771498
23.53473781
29.79127694
29.97523364
27.05009759
24.73425674
24.7684605
24.80334994
22.79508527
18.01509279
10.87138623
1.959242041
-8.841526993
-19.20170907
-27.19305772
-35.51156379
-46.6126623
-53.40853151
-43.262483
-18.15419964
6.193545679
20.70522363
25.81737807
25.5838833
23.35790704
20.22886273
18.34547312
18.10062525
16.52333714
13.14709866
8.336288482
0.917280152
-7.771070464
-15.65187368
-23.21158825
-33.68393571
-47.75856656
-52.76585496
-37.22256425
-11.95960759
8.741467111
21.45571415
24.50692307
21.50471708
18.60958814
16.27655875
14.40872726
13.87301638
13.16954322
9.938982913
3.369648587
-5.062218268
-13.26336772
-21.06431911
-29.8276725
-41.92224477
-51.62516548
-44.91202607
-23.08676661
-1.258681279
13.85543686
21.25966277
20.86562546
17.93050473
16.34853782
14.66159089
12.90360312
11.81891391
8.945105817
2.0691832
-7.704202373
-17.22838866
-25.44402029
-35.25896928
-46.51988832
-48.73202602
-32.80250038
-8.002864834
10.6964934
20.07794102
21.69170572
18.64920379
16.69285501
15.8273351
14.28571434
13.4996446
11.47500507
4.902589992
-4.369906853
-12.38141567
-21.24128882
-35.96758289
-51.10482735
-52.23464609
-33.72538874
-7.15153805
13.24579901
23.78747235
26.04250688
23.21944304
20.50646351
18.53289328
15.65828467
14.10458873
12.06559319
5.207469765
-4.467050299
-14.11837174
-24.98640891
-39.59658466
-53.54809065
-52.62141074
-31.8220168
-4.857615127
15.37399846
26.45187119
29.43961571
28.02316785
26.2338743
24.10285554
21.87782
20.65273206
16.65507113
7.180442729
-3.382915519
-12.45332313
-24.38350854
-42.15883884
-57.10965021
-52.694014
-27.68880215
0.09206171
18.17750736
27.26022537
30.69889819
31.27376337
31.96078411
32.37722552
31.09671657
29.38067842
24.65617142
13.45529837
1.032533256
-7.945702326
-18.37622247
-35.14057038
-51.45807231
-50.8236456
-28.84148546
-0.786381232
19.53924311
29.91569914
32.87597149
31.92261559
30.68622302
30.38844553
29.81510262
28.70588423
25.81211014
18.01254072
7.063879209
-2.519122546
-12.86910982
-28.54886593
-45.83418737
-50.71838213
-33.92419211
-6.19595892
15.97723487
27.10389058
28.97567442
26.9751233
26.4046556
27.59464543
27.28107835
24.68242735
20.7656778
13.70709534
4.130028157
-4.550789252
-13.95258804
-27.54228915
-41.84936917
-44.79202022
-28.76046593
-3.887622217
15.18558246
25.17821509
27.86725247
26.24596616
25.51883821
26.5430277
25.6333609
23.13972148
20.33078736
14.19357597
4.069958086
-6.445840219
-15.37311474
-25.49951005
-38.58461466
-44.89671889
-33.33026437
-10.2735959
10.52497086
23.47068422
27.85908682
26.14330924
23.73162012
22.60336015
20.78722875
18.51735184
16.75994606
13.05105091
5.319813629
-3.529587696
-10.59427873
-18.49995461
-30.03051677
-42.04303813
-43.06534744
-26.90669477
-5.723267373
9.045187937
17.06166972
19.50251812
18.75753772
17.58804955
16.40815397
15.4179485
15.20192968
14.05471748
9.14463749
1.498585385
-5.082000484
-10.55005831
-18.38743619
-29.71470495
-39.82912528
-38.24375665
-21.2992722
-0.630023088
12.99351452
18.89953737
19.39064426
17.77271367
17.65611248
18.78160633
18.37575348
16.60674049
15.10548823
12.16999039
5.227734367
-4.221083668
-12.98301439
-22.23708476
-34.3280591
-44.20788767
-42.0173585
-26.26917939
-7.035568014
6.370922853
11.39643613
10.46583438
9.185796966
8.820311515
6.95191723
5.097836349
4.988551894
3.554841167
-1.298628591
-7.297686928
-13.63189296
-22.60074694
-34.64389222
-44.48319366
-43.50638859
-29.94780299
-12.12747063
0.705420823
3.724765154
-0.74551868
0.503396149
13.62015772
24.35134597
24.61410053
22.12120298
15.94581492
1.873309609
-11.7161046
-20.39517067
-28.93951385
-37.81099384
-43.05194048
-38.01061406
-22.16336393
-7.235164135
0.904085583
10.453705
29.37261651
51.61712374
61.94726468
53.8020196
33.38490787
11.0727597
-8.767578604
-24.24359542
-25.00569208
-10.2386083
-0.086074944
-6.682077676
-17.23641484
-13.18899699
5.171060823
22.37733343
29.11522376
26.60574346
20.1259561
11.92262564
0.573090055
-9.018415973
-8.00884874
-0.897015053
-1.10555427
-10.0899286
-23.04353814
-40.4991176
-60.71054667
-73.93734114
-66.05923972
-37.37955025
-7.38782467
12.90730459
23.77082634
22.39902429
10.71755618
-4.878619133
-23.55829056
-43.90992034
-60.92428351
-69.97003756
-66.32337524
-59.35057209
-62.60840093
-61.07677088
-38.06577394
0.110704079
46.30784541
90.76211857
116.0949158
111.3876242
82.54308716
54.75521895
50.62005233
57.64091938
50.84230889
36.20103044
24.91468427
11.90561741
-3.348825273
-21.71234294
-46.90138096
-72.13862188
-82.43021867
-70.11572462
-45.29465313
-21.28399991
-1.598262456
11.80525189
18.44611842
22.52119641
26.34100149
29.90368326
31.33452529
28.18272891
21.60438271
11.2420185
-7.113808278
-33.34571566
-50.12489533
-37.63819293
-7.700075625
15.71538915
28.49015269
32.62118237
28.61195102
21.13837944
14.43792832
10.46875949
8.634788036
2.933649371
-12.20405766
-33.40327844
-53.87524684
-72.38611266
-81.17123658
-64.4112389
-26.55072459
11.96508915
35.27814363
31.89006187
8.6989019
-10.34538605
-11.39088419
1.354548325
15.62657194
25.0761016
32.5094262
40.31227429
44.52463943
41.03768056
34.76061958
33.71753317
36.19522274
36.19282211
33.37324476
26.19749119
11.05942587
-7.646028612
-21.02279005
-23.1984264
-6.318316089
29.74583397
60.71458334
67.96818112
60.83796976
46.76438981
29.53523569
23.86549689
30.46842115
29.81269279
10.16302855
-6.375294611
16.70528001
55.20615191
56.87112773
32.87728738
13.60943865
5.25179283
6.755636464
2.885834772
-13.94011319
-24.05755666
-22.5291134
-28.68434525
-39.09954968
-35.24635259
-21.13955963
-9.280683776
-2.008025788
-0.002345032
-4.833640953
-11.410692
-11.99500234
-7.956502378
-3.93488548
-0.891091877
-2.100253634
-7.837306881
-12.49172192
-16.43214062
-23.52913461
-30.92398524
-29.9935007
-16.46198805
1.293913388
14.47501051
22.06645446
22.70052812
18.83544318
15.96933175
12.89138794
8.705055125
5.54525104
2.136909444
-2.945902561
-8.92053026
-14.23660817
-20.46042051
-30.32447959
-37.54123514
-32.35320924
-17.86965551
-3.287382234
7.752928767
13.89583878
15.47253719
13.92991674
10.84485326
8.232800722
6.178100423
3.359172327
-1.752308061
-8.016802315
-11.97950746
-14.98631556
-21.45166717
-30.29445518
-35.76635339
-29.90551292
-14.49267709
-2.713544391
4.7867552
12.55910627
14.33784547
10.74621216
8.08573865
6.041390749
5.280274753
6.45960346
6.325895445
2.615985735
-4.632045759
-6.85927145
4.539439573
15.2191865
9.41247156
-1.608675466
-1.36214689
7.718593523
14.74669488
20.13843699
24.57220493
18.85063449
3.984436806
-10.96073834
-23.75009185
-32.12739771
-34.8371998
-34.50508585
-32.22614553
-32.99307964
-42.04431124
-55.59237447
-66.39962939
-66.11303864
-49.57065353
-22.45940929
4.126967961
20.59486332
22.69308363
16.93576631
12.01359066
9.118546254
8.279208932
9.97257818
11.24970178
8.097248969
-0.0779247
-10.36061452
-21.44456984
-35.19969437
-47.79349041
-43.89253896
-18.826814
8.221899244
24.34634654
31.52812558
29.00034373
20.55812582
14.36205648
9.576459672
4.588030138
3.256382656
5.058791977
4.601773848
-0.129146046
-8.895888855
-22.73525539
-39.132189
-46.55332015
-36.10279843
-14.86807505
5.590093152
20.02912925
26.47852333
26.50180054
23.70288743
20.21112471
17.99417123
19.74107294
23.18092836
23.11020048
20.01045504
15.52818909
6.591563684
-8.773852889
-29.51162912
-46.04322969
-41.8546393
-20.96995106
-0.022952423
16.81888122
26.72102785
27.64979579
23.68029345
22.25326424
29.42229051
38.46151678
39.35774499
32.32794128
20.66610269
8.201706096
-2.921937521
-18.15616467
-39.39749671
-55.77017871
-53.91639178
-35.38221933
-12.96889281
9.602579603
30.97367947
45.79255463
55.27829595
59.35566113
53.94047397
40.95696423
29.10381553
22.93829268
11.31985657
-12.50522066
-36.81692019
-55.94343991
-72.80095176
-80.17772982
-59.09959385
0.794601354
68.74032674
99.91075688
92.50092717
71.81148832
53.66564129
40.42555826
25.35909815
6.165981065
-12.03922076
-29.13155126
-49.01758943
-69.79455499
-87.46618491
-105.3764546
-122.9575708
-125.5121233
-107.7178498
-81.80929903
-55.58149654
-27.29021984
8.965684197
49.42579955
74.45936463
77.23939932
70.05158512
60.9368644
52.23752895
43.44478575
31.0175238
14.77024437
-3.468414666
-24.46627295
-47.85687125
-60.57329595
-47.9816204
-15.81636897
21.16297651
53.81880127
75.50820859
82.50459656
78.57230651
73.22721148
72.85469654
72.39925603
61.35148907
40.53918732
20.07087779
5.473076612
-2.629194014
-5.458970256
-5.130417316
-1.994125272
4.586479736
14.23746731
24.55279646
31.73694932
34.46460089
35.8766034
39.62332913
40.92640217
26.81733367
-4.66221528
-33.51465027
-37.29898573
-20.67346097
-6.899984226
-4.032229046
-12.35188872
-33.90521547
-56.74303512
-65.78073583
-54.04142181
-21.91936841
10.33413214
24.61565552
25.43159506
14.544105
-3.744825298
-18.4577144
-28.99132442
-30.56383546
-20.22532652
-10.59147612
-8.034254181
-8.531233409
-8.88465089
-10.3991549
-16.94674749
-20.00600727
-7.704973975
17.44125486
39.12716705
35.09780987
11.7155284
0.574341902
5.961439043
7.215271661
-2.786248404
-12.19361534
-15.55577323
-19.00971226
-19.87518642
-15.5660777
-14.98929943
-22.7608297
-30.16015558
-26.14462833
-16.15097522
-14.73364109
-13.50871749
1.407020824
11.5241134
7.796505935
9.153733519
13.16048668
7.114663683
-1.172287892
-4.622377042
-7.846964642
-11.24468768
-14.53683089
-27.15013185
-49.00774532
-62.44333774
-56.99998043
-39.02921
-16.53615226
6.31596421
25.21831684
37.19565259
41.57615689
40.8271078
35.78819834
21.96387467
5.1253694
0.399867517
5.907794899
8.105672113
4.7814557
-2.40949178
-8.606229217
-4.473154704
6.340002143
16.85952049
30.90710471
47.43191415
53.22247624
42.05008114
25.53917687
16.20201219
10.26168338
-0.462600574
-14.10851306
-26.61392008
-33.99132689
-37.64509218
-45.68224507
-56.208813
-59.28822788
-52.9759305
-49.43309153
-53.99089742
-48.14382742
-25.07495085
-9.022576144
-11.45077867
-14.23595376
-5.231950906
10.23107577
23.75477144
28.5494596
21.6575292
6.285111801
-10.39024364
-25.51616129
-37.3354691
-36.4321185
-21.51165633
-6.101387747
-3.904462638
-13.18239016
-13.19685633
4.398246534
23.14556393
27.97622426
20.60734187
14.92028248
17.03827725
15.62915017
2.60316665
-12.66307271
-23.07954261
-26.26241328
-14.957222
3.919668654
16.07781293
18.46870349
13.72392713
14.33333101
28.72130288
39.62679285
32.11083345
17.08088108
11.85078087
20.19187837
27.04682727
17.5534638
0.679832748
-9.756001877
-15.74028937
-15.24275604
-2.093660102
17.54909414
36.91348523
49.87212138
47.90919658
36.50027433
33.48931977
41.85504713
44.11793869
31.05586629
12.61686824
-2.945480005
-18.27850655
-37.82522709
-62.82167454
-81.13736304
-72.67621824
-43.84991122
-15.14147134
11.47093014
31.57440804
37.57532633
36.11838645
29.46092364
16.84571443
8.291299917
11.83789608
21.28410181
27.70835086
30.74488291
32.56866834
34.49608541
29.48881883
10.63543292
-4.745517522
-1.408452129
7.338231084
9.625001999
9.493632663
10.95049363
17.05670696
26.65321068
26.58701975
11.32441189
-7.201577548
-21.14798606
-31.04645007
-38.05892707
-44.72140062
-48.94585756
-42.98843378
-27.40334209
-11.91437715
-3.00355346
-2.131569932
-4.696181939
-6.940561602
-9.818286767
-7.999370143
-1.78451098
-1.361126289
-9.312461651
-16.62694772
-15.38019662
-12.57778176
-15.1465743
-19.21796395
-19.60412497
-10.13687273
8.274179655
27.03318949
38.15418286
33.60381402
19.7946507
13.3104232
13.82553912
13.93125062
7.952962305
-9.969639166
-31.3640133
-43.99161771
-50.05506325
-55.50917421
-58.14762262
-50.83476682
-31.33830182
-6.667085705
14.109207
25.546846
25.84761173
20.8258684
15.27820984
8.34009827
5.361868074
6.463633273
3.670564973
0.723898262
1.881122707
3.745572495
3.757699339
-6.171560445
-23.88120869
-26.82147304
-8.867662163
9.961423794
12.16046358
8.661088102
28.18753569
61.77172107
71.41113977
53.4867666
32.0139208
19.01467948
10.12987434
-0.581416555
-12.30128603
-24.95279625
-40.9983306
-54.49788863
-54.96663522
-38.10448079
-11.67433652
7.78422532
13.60928991
11.17166245
4.745470772
-2.502599222
-6.22485899
-5.873871643
-7.713547242
-17.13452069
-29.59035561
-37.34574423
-42.42864246
-50.24053577
-58.89444719
-58.14567412
-38.70557069
-8.194696152
19.54167759
38.6210374
46.29278824
45.95992508
44.68954965
44.93354253
44.48732952
40.47150793
33.53631197
25.17346168
17.48340289
13.46297447
9.54882591
0.547263389
-8.224520114
-6.334801981
5.78776573
16.8227029
19.23478645
13.0389768
0.675903144
-12.32673156
-14.37042065
1.997530971
19.88571161
14.81125632
-4.553788072
2.094404236
54.38464848
113.8325549
133.0131739
101.1479294
26.55837027
-51.88738158
-87.6339463
-87.0915859
-75.33769351
-55.96801852
-32.32161437
-5.534796597
29.81812257
65.43827657
84.90318899
87.03738551
80.41153491
68.64220178
54.52199763
44.37663593
39.24001182
35.03493494
31.49857814
28.39530071
24.32609351
19.22701135
12.06306116
-0.37116084
-19.53693297
-39.56941542
-54.39876336
-62.56259876
-64.27632255
-62.86462472
-60.12989113
-56.18735978
-56.01067
-63.01051181
-73.19050968
-81.05857718
-82.1379706
-74.14036787
-60.05902782
-44.31133268
-31.69254488
-22.9163093
-8.859843856
10.39938057
21.45107448
18.98949109
6.251719182
-11.23421834
-27.17598628
-40.98946284
-54.98603239
-65.07523172
-63.63684898
-49.18742584
-25.42791837
1.041782891
22.31422033
36.71255602
45.68017252
47.556317
42.69346721
37.15121486
41.21289594
55.58674633
64.91304828
57.59059319
31.85286708
-5.588314455
-38.97000785
-67.71094123
-100.992016
-131.5122196
-147.9883528
-150.7080283
-146.323877
-135.8872131
-116.2037199
-91.01298685
-66.583092
-44.94965095
-26.11783611
-13.43984711
-10.90841894
-8.9542121
9.710136243
47.14650132
88.76103036
121.5976604
142.5398165
149.2624107
142.5401864
131.0157014
119.2409678
107.414541
93.16598522
70.13242007
37.86787691
-0.120527034
-45.83742129
-99.64804738
-148.2807722
-168.5065534
-149.5392805
-108.1015909
-66.90390735
-37.25616977
-25.25849093
-23.03832466
-13.75151809
1.731425182
6.507642907
-1.382462055
-5.792099566
-6.633345704
-17.44414752
-38.14563312
-51.37567833
-35.2761945
8.293084991
60.26307939
106.6367728
135.31624
144.128419
141.7701098
136.8453985
129.0875071
111.6315187
83.42149577
47.07147127
8.155770509
-23.33959063
-44.20720024
-56.3510031
-51.34234178
-23.7442949
15.52165389
53.74520583
76.6485005
75.64416391
75.27648557
100.9912816
127.2258236
118.0953387
83.45823799
50.78996114
27.65902458
14.87833454
10.39252179
7.858212743
9.752744185
12.86112429
5.728661088
-11.12837339
-33.43007738
-59.1749569
-81.15740616
-92.39028799
-90.97391594
-80.41229339
-65.88257781
-51.4101405
-42.754938
-41.32576045
-42.73953461
-47.06438601
-54.6587328
-58.60314298
-51.59221892
-31.52835519
-2.137068717
29.06854887
53.89056535
64.7601691
61.46075761
53.37003292
49.57948885
50.53722233
50.46815951
47.27587165
41.5711458
34.87953731
32.59366839
31.2997477
25.34794532
21.0322548
19.48320404
17.2553413
14.30084442
6.290306782
-1.974426666
2.707376342
18.19058021
29.36943457
24.92653601
6.303259091
-16.97143203
-40.01722088
-57.93203761
-63.17933627
-58.27004349
-47.7303268
-31.80524625
-16.51365585
-8.202212787
-6.580229848
-7.837138775
-8.592157756
-11.95081848
-22.65918455
-33.72040972
-35.87181107
-33.4987894
-30.68153836
-24.83966553
-17.47163014
-10.55120464
-5.828803294
1.920482373
27.08263219
71.86978614
122.346727
158.5421383
165.6761966
158.8763935
159.2528888
150.5814038
126.3236243
107.5186703
91.00689465
67.88500838
38.29078327
1.812544321
-33.74852785
-81.15589657
-153.3533855
-217.3282744
-238.5512814
-222.1600464
-188.365683
-150.4870206
-117.4721945
-91.47199812
-75.76820532
-74.22440121
-69.24639373
-49.3250265
-34.9774462
-36.05930523
-40.62142879
-46.08722881
-52.8503795
-49.11074331
-27.27177174
6.502267464
44.01971191
77.11255356
101.5686759
114.9852047
108.9659085
83.87072633
52.71692332
27.39805245
7.360440425
-17.23109699
-46.09897358
-66.72638021
-73.39557774
-73.13362122
-72.81318419
-63.71886408
-24.78551458
42.61560255
102.9845049
125.4661808
111.5925537
84.50774387
61.72083075
42.25085619
22.87282112
11.60905546
11.12122944
11.35886393
6.078790299
-5.54415585
-21.37899565
-35.6772679
-43.14993951
-39.02379503
-26.04475687
-14.57705149
-8.853916996
-6.621963859
-4.95109074
-1.947924776
2.131777993
6.450200957
9.989353982
11.43369502
10.71473705
7.260101074
0.391252673
-8.774649441
-19.24717617
-24.87928426
-17.89580867
-3.730467324
7.673397636
14.03822688
14.66010916
10.08789427
5.627590069
4.036300584
2.951808371
0.664427813
-3.631510641
-9.384534945
-13.81689676
-17.8725608
-25.90739302
-32.69177128
-26.92368749
-10.7936261
4.670725404
14.23560388
18.00221268
17.18279686
12.54754001
6.411385647
2.423689882
1.140454508
-0.260736521
-3.924373132
-9.26418995
-16.49984397
-27.74918546
-37.0521351
-31.28016483
-11.51368751
8.067318055
19.36278157
22.18184693
19.46067481
14.19047518
9.162897807
6.547693766
4.764871778
1.634712675
-3.084960866
-10.02424136
-19.16599693
-28.69437689
-33.71117327
-26.40070322
-8.158579118
8.803416214
17.92433794
20.58023487
18.64596786
15.00470103
12.19668536
9.718919398
5.99854961
0.809294523
-4.536467908
-9.520584602
-16.39230206
-27.00883405
-34.17064469
-26.03810712
-5.438392966
13.62156529
25.10873302
29.08235058
25.91377407
19.69129099
13.89915061
9.133581876
6.38723996
4.134273337
-0.280027543
-6.98876503
-17.58636908
-32.32369821
-39.26666814
-25.80316935
-0.356730849
19.69322329
28.22010979
27.68769791
22.79530329
17.64025223
14.56338775
13.95075693
12.97207005
8.093525512
-0.049999021
-8.663511239
-17.4850193
-27.7837266
-33.99857331
-24.99859442
-3.55283784
14.78547774
23.19511969
23.79038678
19.88231677
15.13763346
10.86010255
7.270642539
4.275598332
0.56920027
-2.307615765
-4.609871004
-12.60106557
-27.24488256
-36.31983475
-26.91898974
-4.044109967
16.02349663
25.1374839
24.16209768
17.32652132
10.81633163
8.15011406
8.059612563
7.788917179
4.287679827
-2.585581165
-11.19017502
-22.47768832
-34.44081752
-36.56114608
-21.08581577
1.779773881
17.5365476
24.33981055
24.44616616
20.48710092
16.28616729
12.63699467
8.921038329
4.644285986
-1.06669955
-7.041928255
-12.54021411
-20.61269598
-30.60153638
-32.24911006
-18.00951781
3.875268303
19.69078485
25.71782556
24.10424398
18.02857979
12.88124771
10.20490987
8.071256855
5.797428419
1.667400811
-5.686164131
-15.9741389
-28.02584487
-36.2787511
-31.60319935
-13.06264973
7.46856427
19.08016878
21.01245615
16.61545016
10.40871259
7.317682497
6.594675177
3.950224826
-0.798223246
-5.74115775
-12.25118476
-22.49536418
-33.29798038
-34.09869323
-18.43746465
3.782118982
19.41919525
25.64727577
24.01842197
17.87198437
13.09082104
11.71332965
10.46493122
7.140386405
1.92744816
-4.435803657
-12.5951789
-24.63918072
-34.18278221
-27.51664099
-5.145219011
16.79446307
27.06314176
26.13025027
19.77633809
13.17331732
9.405927892
8.236126683
5.831083609
0.578007283
-5.313815989
-11.55666945
-20.71364234
-31.51226753
-33.59032395
-18.66114229
4.263576249
20.92214179
27.0033202
24.3963942
17.87769027
12.66407089
10.38856067
8.608517383
5.31441025
1.911884178
-2.669600773
-11.45843154
-22.59956814
-28.27894345
-18.73268546
3.549399829
23.48951282
32.77353209
31.34302137
23.38415897
16.89005348
14.56729405
13.11468645
9.565045433
4.746829507
0.364957559
-6.804167959
-18.30621449
-25.3708805
-16.73859112
3.5776962
21.26881091
29.94468311
29.33705861
22.90840251
17.27419726
14.32844608
12.12872651
9.022505598
4.986678022
0.609813753
-5.497052413
-13.9460274
-18.22808648
-10.41768735
5.007724803
17.56983598
22.3008742
18.33952581
10.74150442
6.256382167
4.751747514
3.046037444
0.917778659
-0.653218508
-2.924258189
-7.457019086
-12.65939387
-13.38464463
-5.697414046
4.950770082
9.749853397
8.123926345
3.281843521
-1.969371496
-3.893019802
-2.263540098
-0.651859986
-0.750896957
-2.836889363
-7.092344055
-11.69099418
-14.10795878
-11.73344559
-3.729200824
4.926981301
7.9889666
4.56907788
-0.59598453
-2.359441242
-1.32442397
-1.532615688
-3.225310631
-4.42699846
-5.743006917
-7.92979168
-10.42901791
-12.59766671
-11.50660418
-5.368228944
0.886021028
2.487496995
1.106003677
-0.958212603
-2.708994829
-2.774960649
-1.88022618
-2.237415255
-4.079060743
-5.624471554
-6.843846842
-9.424302525
-13.29438391
-15.02562565
-9.818143421
0.721843471
8.092606088
7.6228217
2.624685188
-1.761290828
-4.395486426
-5.364937665
-3.491274002
-1.230441833
-2.283906194
-5.806066398
-9.461074245
-12.08583568
-13.81919407
-13.9106658
-9.202607809
-0.86066281
4.943521523
5.261585201
2.430690299
-0.138034703
-1.019530093
-0.744967372
-1.285084586
-2.974541323
-4.743120191
-6.9633429
-8.459261631
-9.248094988
-12.98511229
-18.29047591
-18.34226712
-10.89101911
-0.861310095
5.268333641
5.923481142
3.486240793
-1.14011021
-5.94157275
-7.364808435
-6.530829078
-6.410715141
-7.750259762
-11.17736577
-16.61531474
-23.63027546
-29.08746717
-26.3154657
-15.07221548
-3.137371393
2.760723608
2.405055202
-0.218618726
-2.778158184
-3.932960684
-3.305181238
-4.009130716
-7.964820116
-13.02579465
-17.9641179
-23.84962263
-31.13038615
-38.11713172
-36.94231425
-22.372347
-3.189997262
10.27483111
14.98776872
12.73590753
8.228531334
4.451335389
3.132957741
3.375990777
1.746056162
-3.265074831
-10.79031621
-19.3011932
-30.62585017
-45.19012493
-51.39619441
-36.78477234
-8.27057344
15.68190219
26.61167511
27.81327653
24.72058398
21.52320274
21.04302006
21.92165099
21.16961688
17.35950722
9.012257139
-2.327783981
-12.64870812
-23.71053637
-40.71103708
-54.96571593
-46.36143302
-14.96176349
18.87463181
41.32561299
48.40097191
43.69713236
37.76844009
35.95388127
34.70506012
32.63121385
30.74696331
24.60807799
12.01426319
-1.636184267
-13.04366954
-25.60701327
-42.48282653
-53.67229997
-40.81144729
-6.952730571
25.34821063
44.29941316
50.57476848
47.60235912
41.47960677
37.97723854
37.66753161
37.50508071
36.13739001
31.8318272
22.46610524
9.400654614
-4.871133027
-17.59414678
-29.30691049
-43.50122873
-50.69831934
-34.5559126
-0.67732885
29.22278458
44.27039316
45.21382424
38.20938334
32.77608235
31.8211127
31.35780129
29.96382385
27.49167134
23.18805876
16.67356918
7.038468922
-3.59343862
-13.43004455
-24.77375124
-38.03556052
-46.43008995
-36.93190419
-10.03028204
16.47246214
32.01928834
36.52173257
32.92245875
26.75544834
23.0221222
23.24366186
23.57108982
21.13549763
17.25216185
11.81093525
4.484709333
-4.489799279
-14.63197187
-24.09168577
-33.93200731
-44.10961095
-43.76531656
-24.47822633
2.675586965
21.44893037
28.45102058
27.76302831
22.87026371
18.88751725
18.69324571
18.39883885
16.09458538
12.77251468
8.27596102
2.452876873
-4.874066573
-12.29502014
-19.36530329
-27.73571489
-36.68007272
-39.93489294
-29.1764743
-8.083915927
9.829419878
18.32533805
19.03631045
15.07185804
10.49179843
8.314025702
8.147177956
8.460107707
8.129598961
5.411887168
-0.390329151
-8.123519747
-15.64882728
-22.12252324
-29.49963731
-37.61747823
-38.34637236
-24.08294076
-2.770369581
11.79064956
16.89207356
15.24551971
10.63068242
8.054470647
7.37583259
6.247818959
5.781281207
5.103445283
0.775025368
-6.450661757
-12.77882913
-17.70776922
-25.19317399
-35.95176516
-40.62941386
-28.99184977
-6.906085192
9.684384754
16.0409922
16.30029683
12.85733924
9.873703144
9.647395714
9.518655925
9.469007786
9.032316025
4.269830321
-4.283136529
-12.94816439
-19.77318574
-26.71782646
-37.83837581
-46.37668846
-38.82351355
-17.37484362
3.996574294
17.49287079
22.12973546
19.89413082
15.94062448
14.55344127
14.4227445
13.45631817
11.97599829
8.369746976
0.991132256
-7.962923456
-15.83333373
-24.28672611
-36.6413754
-48.71709468
-47.33472185
-27.20859163
-0.436375993
18.64017098
25.86398214
24.32392073
19.81462082
17.55179959
17.18466141
16.12417344
15.08482869
12.36759827
4.44780186
-5.798941536
-14.13570965
-22.54255974
-34.86018218
-47.7310124
-48.36313389
-29.54366188
-1.507919864
20.06554319
28.71107432
27.56528316
22.69818484
19.30794777
18.84709676
18.65671716
18.53477513
17.92350878
11.2649117
-0.610289218
-9.803814857
-17.36509981
-30.534414
-46.8852053
-51.97940836
-34.71398416
-4.590360365
19.41228627
30.86705628
32.5728256
28.6521392
24.52420703
23.15451009
22.51471445
20.99100596
18.71074773
12.54195418
1.968321898
-8.624833333
-18.78265605
-31.44727247
-46.1722986
-50.52309662
-31.55753971
-0.017147998
23.99639733
34.44311445
33.67724204
27.3413873
22.20802845
19.10688397
17.31715775
17.39810871
14.92258666
5.759007761
-5.256432858
-13.74233586
-24.14043388
-39.63220402
-51.79643988
-44.66739171
-16.23771162
13.78939653
29.71138851
32.37045506
27.28611946
20.65632525
17.43425037
16.54425597
16.21514531
14.33529168
7.141705916
-3.059368577
-12.35799485
-23.24174655
-39.8036364
-54.01743038
-46.55913778
-16.25211634
15.14966039
33.32178376
38.46004878
33.95511295
26.54175819
22.41782569
21.11501002
21.01826485
18.79871055
9.597617305
-3.37499115
-14.27761172
-25.15305439
-39.91893091
-49.55823005
-37.74197563
-7.958558494
19.3418672
32.88531638
34.93327758
32.45493128
29.67390606
25.51762542
20.09288967
16.71577338
13.68018859
6.533515824
-3.185796988
-12.93854623
-25.62437959
-42.78248281
-52.57707658
-38.73155349
-6.486331342
21.69690536
33.77257689
33.32590951
28.23227394
24.6418875
23.08410385
20.53695277
17.66131803
14.23005495
5.988345069
-4.819443165
-13.2772813
-22.94823331
-37.48811862
-46.12249525
-33.09425388
-4.130485302
20.53250917
32.70483105
34.91451376
30.8464924
25.42114664
21.86871916
18.98620664
16.81762194
14.47719433
7.21506029
-3.077444163
-10.19778259
-17.01267155
-30.47923802
-44.12140755
-40.44708452
-16.81034981
8.878626559
23.43295174
27.91739218
26.14716976
22.52380639
19.18131452
15.76478887
14.21739979
12.8305126
6.676256918
-3.082141672
-10.95304179
-17.61044538
-28.88305081
-40.60358256
-38.12159018
-17.94480619
5.450322786
19.59379521
23.51736728
20.19086905
14.35273493
11.51253336
11.49273585
11.44666798
10.593555
5.623741772
-3.137625754
-10.79267271
-19.1961461
-31.25478165
-41.06699882
-36.84458879
-16.37100769
5.87448099
18.06680038
21.06549733
18.52727325
14.70839366
12.34601782
10.54905185
10.65529645
11.29352432
6.186161841
-3.303645366
-11.74053308
-19.40866681
-29.66802458
-40.00893326
-37.94882722
-18.8423846
4.049662331
17.82768134
20.95086913
18.23282641
14.68095494
12.79037951
11.71015053
10.71785339
9.75474675
4.714071191
-5.025150963
-12.69417619
-18.28482607
-29.03280073
-42.25671939
-42.75044202
-23.9719723
0.883823695
17.41326785
22.83694609
20.6796678
16.54930412
12.84481186
9.27468071
7.560394582
7.396482275
4.121298746
-4.326287882
-13.18355769
-19.21570435
-27.41473752
-39.32560759
-42.29049822
-26.05626467
-0.819813293
18.42697516
27.24813243
25.59168052
18.08084401
11.82494988
7.655401788
5.683154913
6.711282921
6.36089687
1.045997145
-6.489719376
-13.51109292
-22.48474689
-35.29951024
-42.25112036
-30.17232411
-4.772779034
16.8525042
26.93355599
26.74555689
21.94771911
17.48844153
13.95618172
11.54682106
10.47269532
8.441929849
3.239247698
-4.815820596
-13.42011945
-23.56862567
-37.0373418
-43.31325394
-30.2529838
-4.989870563
15.80826017
24.57697499
23.59797556
18.31307963
12.82160257
9.40397952
8.935781424
8.850746741
5.295974365
-2.182976614
-10.67903842
-18.77640844
-30.39241994
-44.01567327
-43.41189709
-21.27473423
5.560277851
21.1816362
24.82003638
21.07229576
14.9446434
9.870342428
7.29046399
6.768868617
4.545924735
-1.772542171
-9.922368431
-18.814931
-31.22286679
-45.07526859
-45.91341696
-24.89776117
3.618377525
22.61852471
29.94154992
28.08970683
21.06978814
15.12311363
12.37038306
11.00409917
7.280942102
-0.805926926
-9.580881867
-18.12204
-30.45075092
-44.19299116
-45.07250622
-23.41414542
6.899935944
26.83683267
33.39714896
30.26464258
22.12476868
15.62676597
13.52758624
12.81170826
9.400490422
2.395511217
-6.377008935
-15.25462638
-26.11229034
-39.80763444
-42.19094024
-20.99837551
8.495809042
27.68833512
35.32883873
34.00873344
26.67339731
19.28726285
16.29853644
15.92975934
12.81435525
5.552481734
-4.055173104
-14.56147517
-27.69774969
-43.32969438
-45.67051745
-22.45768072
9.839520357
30.90480497
39.14138321
37.60089867
29.09289109
21.20813856
17.91563521
16.43791669
13.55884943
7.511401286
-0.916640456
-11.18096323
-26.38820012
-42.67931006
-42.96312641
-19.8726484
9.775118081
28.07195604
32.72215101
28.52373972
20.70373697
15.04882653
13.73610906
12.94376319
9.168761622
2.713423382
-5.768304343
-17.53203149
-32.4361447
-41.02002225
-29.09410978
-1.164138822
21.44640937
29.59594208
27.62168789
20.62437402
15.14389425
13.72285456
11.3580833
5.987245141
0.234518807
-5.847710014
-14.02042416
-26.25703646
-37.94763568
-33.37433965
-9.242128136
15.61895138
28.91686958
32.46162476
27.17016803
17.60669199
11.36525157
7.470635216
3.192670406
-0.02956801
-3.305209363
-10.79252537
-25.02614854
-41.19899874
-44.1777886
-24.54121876
3.987554156
23.0761122
30.20171707
27.71473125
19.55465093
14.09931451
13.1239131
11.93604351
7.751611393
1.027236668
-7.048832472
-17.76855108
-32.79829539
-43.90377517
-34.73897746
-8.437727636
13.60098379
24.11900646
26.82438196
23.52887917
17.84691621
12.93643634
9.922648526
7.323993805
2.354468604
-4.859576028
-14.01081445
-26.49140185
-41.20198881
-46.02417904
-28.53158503
0.312806506
20.73109279
28.8026064
28.49926639
23.86677025
18.8815712
14.70214687
11.52745426
7.710382609
1.211790473
-6.355782165
-14.66808634
-26.07689108
-39.9362971
-43.84809152
-25.67763288
2.874331259
22.27628364
29.28303351
27.96498571
21.91509535
16.23884051
12.30669492
9.245407524
6.744324421
1.960664107
-5.280010109
-13.132205
-23.99067601
-37.9928848
-41.78332619
-22.99878969
6.073360409
25.2632001
30.57880041
27.01342998
19.98865923
14.15368886
11.21028186
9.973273267
8.210189975
3.806930768
-4.028532303
-12.52895442
-21.43675235
-34.76732002
-44.44760861
-34.16187559
-6.919761459
16.93304609
26.34393262
24.76109219
18.91092137
12.5870922
7.385817862
5.192490728
4.509112031
1.134833828
-5.01189466
-12.5038264
-21.5053713
-33.68120473
-43.79967182
-36.32258522
-10.46971708
14.30301636
25.73973137
25.71871717
19.52951019
11.89011034
7.467252714
7.558833874
7.155989229
2.349522386
-4.078945941
-10.55445008
-19.93531616
-33.25198704
-42.15128113
-32.27868125
-5.669336767
17.68434137
26.66411856
24.87946664
18.3735588
12.42754652
9.483151869
8.407773135
8.452201101
7.817232388
2.972183026
-5.584166869
-13.59469106
-19.16989422
-19.9671344
-12.64801001
-3.199223877
-3.651343815
-18.30967723
-40.01544218
-54.61853573
-53.85367742
-41.43992418
-27.51857469
-21.96287491
-25.09867242
-30.98257177
-38.7511588
-50.88874656
-60.26671063
-50.24034094
-18.98720153
11.37944266
20.49003744
13.553807
8.460076378
11.91343923
19.66626555
21.84404934
14.5846317
9.235515106
10.18758634
5.904148235
-7.264886752
-16.81012271
-6.420283116
25.65690306
63.37509028
93.38235324
110.2494049
111.5797013
104.1481101
97.85146295
92.08706751
75.88448537
47.91405215
20.52493566
-1.981249462
-20.41446692
-32.42333264
-32.95126386
-13.55626849
18.55511743
41.69917027
46.21010604
39.20483569
31.43123819
22.0155383
-1.453233638
-32.39088587
-47.00302295
-48.13244849
-54.03906482
-64.50732761
-70.81851694
-62.51959485
-40.01830374
-20.40957343
-9.269965863
-2.9781786
-0.863743722
2.311114847
9.217481764
19.45229334
32.94377315
44.57428509
46.54530927
35.76037057
17.41341569
4.416106878
5.953551649
16.48420622
24.07035339
23.0383293
16.79906904
11.13976802
5.886508718
-2.068801294
-10.63441871
-14.61115226
-15.70950593
-22.1803384
-35.66212837
-42.38701062
-27.98654009
-0.265400985
19.47249809
23.07923975
17.82200099
8.085773681
-5.233042049
-16.28579365
-22.84924682
-25.4974391
-23.35191949
-16.53601583
0.705711304
23.69458819
33.74307199
30.04131062
21.95951394
11.54664605
-1.029379011
-16.28494242
-29.8500924
-31.57626643
-18.9582425
-3.980292795
10.28620498
33.0037613
55.35507094
61.76062976
53.82542362
42.9712109
39.0890466
44.68757729
51.09132382
44.53260174
24.1503017
3.888359621
-8.909866926
-19.03580863
-28.74482061
-34.92917022
-37.64133301
-41.54874008
-49.99744759
-57.43589107
-50.81698722
-29.38183908
-11.08516719
-4.62387209
-2.331126558
-0.128760348
2.488244417
3.806129068
1.891517648
3.437874653
10.92215221
16.46948656
14.80534623
7.447603199
0.730812925
-0.970236252
1.872454546
6.462093264
7.488790464
1.841131976
-7.672658183
-17.54003667
-27.86337866
-37.46644049
-43.69857504
-48.86700974
-55.78791619
-65.67994298
-74.2727185
-62.52662033
-28.20739344
1.715722756
16.21324827
19.84116721
14.07477068
7.034079737
2.319884647
-2.124671411
-2.90023161
-2.05809437
-9.281594361
-24.66000814
-33.71376259
-26.68579685
-9.616425539
7.33506971
18.09615261
20.97994624
17.45073393
10.48297559
3.14277658
-3.669601923
-9.907697106
-15.0452549
-20.2257845
-28.82844206
-41.54074453
-47.8543053
-35.57964606
-10.56212318
12.80116632
29.48834169
38.81512525
39.95343555
36.35391935
31.62952628
25.53747209
18.6151885
12.75974588
6.858491988
-3.958093669
-18.35525161
-22.20313672
-9.931167622
6.278631182
18.58224578
27.05416193
29.60200335
24.07322691
14.11708508
6.672076357
3.45712165
1.654722284
-1.989067884
-9.17904518
-19.21270958
-30.48781228
-37.65389767
-30.96275274
-10.25818779
9.302135559
16.58383128
14.74138486
9.870097293
5.198678436
1.75013752
-1.712699799
-5.882722385
-11.28030402
-18.84848223
-26.79977702
-31.79699918
-25.36631777
-2.520405353
21.97331119
34.1814254
34.50278836
25.1430444
13.09484696
3.835106161
-4.618066565
-11.00865742
-14.77839714
-18.63950464
-21.51304255
-24.93104467
-33.86854142
-42.1562912
-36.38559016
-15.47162565
10.42836341
27.375104
26.91752176
18.09217737
11.04254597
5.712722337
1.325983001
-5.115661437
-16.8489261
-31.94487583
-49.83871082
-70.66054342
-83.04114673
-76.23996265
-58.56796474
-43.0739668
-34.73723897
-36.86435544
-48.6881502
-56.60428982
-49.2088253
-33.90845751
-20.8361673
-13.16045771
-14.93976044
-28.2558478
-44.78786986
-45.58221071
-20.82298133
17.21146248
51.55567916
70.56061362
69.66347417
58.67450427
48.04137586
36.48929729
22.89732012
10.45694732
-1.309113792
-16.96888795
-39.92397123
-59.95886787
-54.78019481
-21.78284541
17.62659888
46.40489667
56.95527183
50.80176774
41.31866452
36.54583966
32.53115816
25.88292357
16.99975915
6.665238739
-8.596393631
-31.60969458
-46.86244128
-32.86541458
4.273437655
40.71185485
60.81601592
58.45634536
41.94112596
27.94360572
19.32661637
9.044969247
-3.834833308
-15.89628556
-27.16785508
-41.65975663
-54.34713935
-45.08081583
-8.830860178
30.80745089
53.47791752
55.49807258
42.70189243
28.42737184
20.54482447
14.39750361
7.212653481
0.954738045
-9.682614384
-30.38417167
-50.79963279
-48.21814226
-15.69084626
26.3304964
55.84029745
62.36622954
48.29529816
30.66487659
21.09831138
14.98282069
8.574990869
3.061744383
-7.500599075
-29.34570456
-51.7184069
-49.39367936
-14.57176323
29.54195147
59.0627843
64.33508957
49.40871491
32.13656554
23.1067538
17.09839782
10.93591942
6.639306656
-0.992744274
-20.0469952
-42.57828455
-43.09178004
-11.41581541
30.51330299
58.46244801
62.82011425
47.99742229
31.67579011
23.32679495
16.96848924
11.06657036
6.732814143
-2.428197414
-19.65922623
-35.3031067
-29.68132812
0.845192372
34.35974483
54.05023821
56.52522376
45.72232565
34.1344306
25.87755196
14.92696989
4.206496419
-2.990939827
-14.3296748
-33.56801152
-47.993216
-37.88389566
-5.703606307
24.8292143
40.7545135
41.41736253
31.6916443
23.70188291
20.31335652
14.60988334
7.259854497
1.003737073
-8.272303544
-24.62150512
-40.31307531
-35.830859
-8.094946788
21.10988535
37.070904
40.21762144
33.2309434
23.22435682
17.63476391
14.78971364
10.46697695
4.677021954
-2.838398128
-14.16726313
-29.41437143
-43.9811603
-44.09682603
-20.10561155
13.6351271
36.44401945
42.49537061
35.60358687
23.9586184
15.27151799
11.68536503
10.77609046
8.684938135
3.844041656
-2.68500446
-12.01022671
-27.37162096
-42.96347572
-41.29179762
-16.51210361
13.18254788
29.77085432
32.55968834
27.08311405
18.49063865
11.29253106
6.730141902
4.91939186
3.286788358
-1.436401493
-8.079498137
-16.06349852
-27.78494128
-40.97245528
-41.78595204
-21.71544895
5.548671212
23.35531232
28.05906652
22.88979076
14.14022608
7.162374679
3.041672635
0.718591536
-1.884825131
-6.34300644
-11.75232437
-17.42788617
-25.58955247
-38.25119461
-46.07484521
-33.98530834
-6.489018743
18.10021937
30.89490461
31.34189468
24.16606385
17.00435799
11.35139367
5.988609759
3.361344625
2.515359844
-2.296770146
-10.15268195
-17.14350648
-26.24801879
-39.18920644
-48.29003546
-41.25647715
-16.7001261
10.03818614
24.74566366
25.46600748
17.72837974
9.974787557
6.481867231
4.21639962
2.420018133
3.172709401
1.663491144
-5.894390242
-14.89711427
-22.57054296
-31.16956893
-41.73894751
-45.46846779
-29.86798319
-1.5737333
20.73888775
29.6656311
27.84122924
21.08313429
15.12749785
11.41626065
9.116664264
9.186579474
9.724797955
4.082932334
-6.982239647
-15.87127188
-21.43573675
-28.64771875
-40.44490529
-47.04326464
-33.9340178
-7.296916928
14.58750026
24.14263222
22.02024314
14.71745661
11.69191922
12.45520725
11.68672914
10.80040464
8.919599199
1.991718847
-7.629711488
-16.07439648
-23.64232549
-33.83692009
-46.80709867
-49.32022689
-29.64611764
0.399523634
22.41690907
31.14920704
28.67713164
22.01545673
18.26097208
16.5028144
13.31359751
9.859012373
5.999408502
-1.748028049
-11.11023409
-18.62939408
-28.35547119
-43.57484736
-53.36690898
-41.18136722
-11.55454881
16.37576841
31.74516943
33.13240644
27.50012139
23.08220594
20.51024788
17.28254837
14.18950712
12.02977685
6.45677304
-2.871013199
-11.38040299
-20.7903582
-35.30470258
-50.80939038
-51.24240621
-27.52096223
5.635817647
29.83654387
39.03895332
36.4935782
30.67323966
25.90412873
21.32813455
18.15613257
16.83409674
12.54098505
2.872965244
-7.408274489
-15.78518632
-25.84356485
-40.7536396
-52.40277079
-42.50655888
-11.1411377
19.13892364
34.29164047
34.51071656
25.94006105
18.47305563
15.77176946
14.5262565
14.07190812
14.2147141
10.04087437
0.834010914
-7.634417404
-15.9468924
-28.19777716
-40.18043117
-39.42854844
-19.2423207
8.917095452
29.58694754
36.72482826
31.48341624
22.93739556
18.32149017
15.7390075
14.04100604
12.97511892
9.226626311
2.084551443
-5.327044804
-11.88198965
-20.9945037
-32.86272216
-36.9477798
-22.82195576
3.173482267
25.16500413
34.26471387
30.56287971
20.42046715
11.13830711
5.902851006
4.895297302
4.744072235
0.792630198
-5.835614872
-11.52330526
-17.50285538
-27.2014412
-39.608653
-42.67552704
-26.90456836
-2.68712934
14.32677769
18.92127533
14.18055959
7.772490637
5.149946664
4.788543536
4.680411
4.680443659
1.459296689
-5.250196165
-11.83997542
-18.99119424
-29.67264421
-40.56776804
-38.85851407
-18.5607621
7.025079546
22.755375
25.8800835
20.66833207
13.43327952
8.856931793
6.446634492
4.936284779
4.003205963
0.708561914
-5.928226502
-12.14356572
-17.98842195
-27.67414905
-37.47182043
-33.89603184
-12.55717658
11.31618828
23.94763678
25.1847386
18.90351665
12.26785074
9.342187239
7.378305705
6.728332059
7.130566959
3.664286855
-4.494798322
-12.09103348
-17.91966077
-27.8922466
-39.62967156
-38.11997309
-18.08217113
8.012775021
27.11724598
32.50330162
25.93872409
17.80029196
14.11296212
13.23814966
12.78776111
11.20432469
6.39894502
-1.804574049
-9.521955897
-15.39067135
-23.3699695
-35.37346863
-41.69117717
-28.85388806
-2.616749145
18.91282418
27.51889883
24.97418639
18.06292662
13.30078183
11.76793284
11.91641939
11.75340007
8.433000769
0.542028894
-8.352837169
-13.43629124
-17.9232571
-28.77427454
-39.13249176
-32.73987002
-9.865521601
13.52234102
26.15631596
25.75241761
17.01163544
9.355403586
6.869298631
5.902751023
5.468598835
5.303686761
1.457507632
-4.946494466
-11.29291702
-19.77311566
-31.91608421
-41.01142168
-33.12781151
-8.06065814
16.99702137
29.23041086
27.12941439
18.45510432
12.60051988
10.92383761
10.39228251
8.993631479
5.779684658
-0.489748649
-8.730476
-15.86433029
-24.66952215
-38.14997926
-44.76773208
-30.7769003
-3.535242871
20.46648063
31.99771435
28.5740685
19.0742666
13.99265963
12.40590074
11.37745998
10.3640991
5.662871902
-3.337007194
-11.62311419
-17.77629195
-26.4905713
-39.73194491
-44.59903843
-27.0850158
3.099749677
25.80223704
33.23928227
28.94577168
20.39729204
13.87104986
10.89272925
10.39508816
10.66365584
7.188244701
-1.37900199
-10.27773599
-17.68431693
-28.35169021
-42.37491396
-44.34180991
-23.14625796
7.852548246
29.84730486
36.19046147
29.86102018
20.61003252
15.89713238
14.71431572
14.90832695
14.75365385
10.29491881
1.140800695
-8.556776987
-17.98648661
-30.93071454
-43.52296444
-40.03178392
-14.98455939
14.9983431
32.73937613
34.49099821
25.15437675
14.79951629
10.27980004
9.888009759
9.844902547
7.358006849
1.161090871
-7.238831594
-16.18478867
-26.87690351
-40.01091086
-44.05226882
-25.2010205
6.416762004
29.81755672
37.18421226
31.28096114
21.31913244
14.76361338
11.77532608
10.95979444
8.91487321
2.75912541
-5.724002371
-15.19807969
-27.16637833
-42.42593421
-50.42892748
-34.70937673
-1.583873163
25.38249379
35.6514585
32.05294062
22.6066112
16.70147281
15.88303225
15.28500338
11.78830859
4.559611463
-5.44830834
-15.11885695
-24.39924582
-37.36150516
-47.19210368
-36.07335768
-5.723230954
21.42684108
33.63522206
33.45613117
26.29301304
19.2322639
16.09979828
14.98002815
13.4136823
8.487463447
-0.323914702
-9.840643676
-20.42187206
-34.33070784
-46.64682318
-42.53875489
-16.14766632
14.35617021
30.96301883
33.49222021
28.77373236
22.68953751
19.18678479
18.83981495
18.39061739
15.11579492
7.501611728
-4.191278511
-15.33707361
-25.42624011
-38.11889149
-44.07282399
-28.70319901
0.5886249
24.05897335
32.77983082
28.71872179
20.59699558
16.1287435
15.65400764
16.00562212
13.98513111
8.061649047
-1.437076504
-11.86166353
-21.06794285
-32.88727826
-43.9012956
-36.99515562
-11.02581324
14.70875127
27.82433664
27.50020967
19.79619723
13.314929
11.00533306
11.22000381
11.17144957
7.920186059
0.883666561
-8.108723085
-17.59345751
-29.97618203
-42.79912949
-39.70271113
-15.55808415
11.83050469
28.13620813
31.1553821
24.93492031
18.02850088
14.81563095
13.00380722
10.90756903
7.876603046
1.536284873
-7.901859268
-17.90758483
-29.12849653
-41.05018494
-42.41427787
-23.39552386
5.576577013
26.69750635
33.92335066
30.52268058
23.77172724
19.865793
18.17802814
16.35674841
13.13076569
5.663113457
-4.882570908
-14.71902454
-24.68497066
-37.4677595
-46.26881993
-36.39740152
-9.763821169
14.85670507
26.66532308
26.53379835
21.40451676
16.88608722
13.0292734
11.28665793
11.51815448
8.084872965
-0.757050701
-10.06569786
-17.24291821
-25.62092774
-36.66141748
-40.29846933
-24.9470454
2.59666109
25.31172265
34.58048354
32.35710772
25.69241059
20.05128139
17.04028408
15.12120646
11.45035798
4.386587223
-5.418883952
-14.74155079
-23.06117786
-34.86311085
-46.82384473
-42.59459308
-17.9999783
8.638228513
22.51151304
23.53211997
17.84048658
12.55201933
9.603906596
7.851972623
7.479161891
4.616594551
-3.237286124
-11.78124121
-19.42224921
-29.54342893
-41.11653266
-41.39485568
-21.93741755
4.77654297
22.98400905
28.06138575
22.7125078
15.10763461
11.41064552
10.59969276
10.00616551
7.770441771
2.03225754
-6.328769135
-15.53253494
-27.20413951
-41.30988573
-46.38447059
-30.19084618
-1.901622574
20.02096048
29.44332773
28.24433348
21.41740808
15.98323707
15.1432469
15.04535504
11.21129452
4.248608675
-3.730930121
-12.52500725
-24.10131458
-39.54387317
-47.85038387
-33.93244313
-5.025446873
19.3780138
32.09277732
33.05293816
25.83532889
19.66345078
18.21315801
19.15325136
21.02362951
21.21364527
19.29311399
15.92086646
7.553730476
-5.65211278
-12.44168542
-1.884884423
19.28513324
35.26640492
41.46233915
40.72455806
35.60083684
31.09252483
28.52374572
22.57127775
11.72879202
0.893402357
-8.461793251
-22.69279852
-43.35071732
-58.37052338
-58.95192558
-51.78915558
-46.26323309
-42.75158371
-38.71764852
-39.58448466
-46.40452408
-47.76252255
-41.22211971
-30.5237252
-13.89284248
2.600668606
8.575130429
3.84363265
-1.699931959
0.451793995
7.914090185
15.89676229
18.52291873
9.327709297
-4.410150376
-15.17324135
-28.49209335
-44.46172279
-57.7150863
-69.59495843
-82.46053283
-94.81419488
-96.22489265
-71.35972303
-26.46896071
12.1847744
33.64989211
45.82427098
53.40711938
57.95171414
60.39441746
55.89282414
43.67431055
28.48965208
11.71516075
-2.557216799
-6.896871599
1.219216525
17.49204682
33.6095365
43.01778918
46.08511849
47.81832011
48.11046083
42.22799257
29.76581504
13.76437186
-0.727963022
-10.73431394
-22.89526025
-39.64117915
-45.57914386
-28.60518568
1.961608025
26.89956687
35.29032578
30.20463768
21.0937307
15.15967992
12.75436359
10.4669907
6.631991181
0.514203362
-10.88229181
-28.4282258
-40.17648012
-31.14722071
-4.364341212
25.53066572
48.58038475
59.79039212
58.10059039
48.61097054
37.32699346
25.89262068
15.95555088
8.774142977
0.611783653
-11.80780598
-26.03107983
-31.39072098
-18.00687336
7.478589087
29.73349238
41.28058498
42.94510336
38.00325004
30.33048912
23.71839338
18.32286785
12.19592404
5.560147083
-2.017047696
-12.56952446
-25.94624433
-36.93572019
-34.55888218
-14.81219233
11.43399837
31.51351552
39.71172626
37.25100622
29.889704
22.76341688
17.30170687
12.23871676
6.869948538
1.326176725
-4.220286247
-10.77371539
-21.41425686
-35.79564771
-43.82497717
-35.78596283
-16.55857271
2.559277702
16.02408669
22.04065941
21.49444968
18.86626673
16.61549456
14.04117867
10.87540576
6.119779792
-1.198820229
-9.532578244
-16.01735438
-22.04268428
-31.22005013
-38.56524832
-34.2869295
-18.76650674
-2.033037594
9.269572563
13.86431807
12.64818907
9.955363879
8.524420645
7.26655872
6.052613309
4.778317535
1.7906149
-3.215757824
-8.799866855
-14.36248992
-20.96848414
-28.57424499
-32.2933519
-26.96892306
-15.18469783
-3.045336126
5.561228478
7.807309667
5.439838635
3.741243494
3.012221893
1.495007938
0.127663456
-1.271060372
-4.730995517
-9.217450976
-12.62421431
-17.4725586
-25.21499808
-31.16979252
-29.04800682
-17.5297344
-2.940119394
7.575613795
12.32918404
12.51460066
9.794867507
6.951626713
4.758408496
1.28011776
-2.116230478
-4.138651732
-7.78087831
-12.75132532
-17.41868483
-22.86127951
-29.56114718
-35.99848721
-35.89962511
-25.00334526
-8.893088972
3.388318833
8.568319289
9.86593486
9.116096331
6.890534777
5.247576614
4.397438079
3.330641809
0.990751364
-3.253031943
-8.279443127
-12.33271179
-16.47008065
-23.12087826
-31.34551772
-36.22619364
-31.05849906
-16.35272359
-1.225594304
9.111889211
13.61745728
12.19097388
9.419819901
9.190180862
9.960968178
10.10092615
9.044333588
6.288199837
2.861870938
-1.147860182
-7.294003563
-14.93450704
-22.54665874
-30.73573548
-36.7783365
-32.72309561
-16.28358122
3.866717716
17.85400475
22.92647006
21.62066766
18.79535731
17.99490243
17.89222164
16.51105087
14.61467254
12.26482644
8.732639529
3.762319913
-2.324116394
-9.232699132
-18.89096034
-31.53847252
-38.84801366
-31.60256896
-12.52003946
8.261933613
21.73390036
23.73552474
18.71782314
14.35699859
12.36426207
10.62715333
9.918125313
9.820982944
7.140390525
1.877785732
-4.476127322
-11.52405467
-20.41918142
-31.73919731
-38.69608707
-31.67631359
-11.90753805
11.46140586
31.31116961
40.97073949
39.28888735
32.44719116
24.61495185
18.40694178
15.28333663
12.47906418
6.944572061
-1.372420139
-10.13004798
-17.64594905
-25.98518057
-36.69082184
-42.67557123
-33.85116475
-12.21609889
10.12172006
24.24926769
27.08233519
21.72375188
16.03852634
13.61412813
12.86558337
13.05020136
12.5026364
8.113541079
1.507149403
-4.224969933
-11.41742243
-22.28622582
-32.16315967
-31.28772277
-15.7141881
6.146179591
23.20893961
30.15844216
28.08574835
22.64073253
18.77710228
16.72794442
14.72158105
12.22218005
7.477451969
0.729375048
-4.147713841
-8.665629641
-17.83788801
-29.4783894
-32.31818176
-18.54781213
3.8814814
22.23874691
30.09993172
27.52981722
21.21586062
16.18196245
12.26157319
9.942266393
9.202316085
6.525093301
1.369523302
-3.992139548
-10.11039651
-18.53669725
-28.49130436
-31.52246171
-19.8680519
0.186962292
17.24320159
24.89619857
23.93379118
19.87455695
15.68596028
12.654704
11.04749695
8.685419042
4.969125974
-0.145167098
-6.359092103
-12.34560237
-20.59788762
-30.72338037
-32.90813198
-21.88125444
-3.429227448
13.41916333
20.96516675
18.53629528
12.45091452
8.214051472
7.124277925
7.326692815
6.027322686
1.932499238
-3.380206676
-8.523357129
-14.31210304
-22.71737235
-31.71785448
-30.89240212
-16.28216436
2.098161313
15.99586861
21.39561392
17.67248023
12.3512309
10.46689541
9.272624937
7.097676174
4.34624912
-0.07841999
-6.385355801
-12.28106477
-17.90309026
-25.79581255
-32.65170624
-28.71292684
-11.69509596
7.316800037
18.36207659
21.29358343
19.46765371
16.67312385
14.86676802
12.53909752
9.626912517
6.596280746
1.563576651
-5.131733731
-10.33544201
-13.95442716
-20.16982393
-27.75127579
-26.51449009
-12.57639871
5.129943062
17.34690375
19.92750807
15.48438603
12.21182705
12.2144348
11.91289024
10.32397087
8.052612845
5.321161078
0.798121493
-5.66977707
-11.16721333
-16.12526
-24.00142133
-30.81898176
-26.7029796
-10.71790377
8.113141751
21.36740111
24.80307475
20.35752648
15.37358581
14.20954758
14.40952332
13.19475332
10.76979522
7.037340307
1.027351771
-6.267331785
-11.99021975
-16.90754616
-24.97372736
-32.86473662
-30.44928641
-15.22008188
4.137598673
